6.455895775667741532e-04
6.436343781648368179e-04
6.416791787624553933e-04
6.397239793600739688e-04
6.377687799576925443e-04
1.063581358055598614e-02
1.063385838115360471e-02
5.631903181751329868e-03
5.629947982349392532e-03
5.627992782947011108e-03
5.626037583544629683e-03
5.624082384142692348e-03
6.221271847399734156e-04
5.620171985337929499e-03
6.182167859352105665e-04
6.162615865332732312e-04
6.143063871308918067e-04
5.612351187728847890e-03
6.103959883265730468e-04
6.084407889241916223e-04
5.606485589522147706e-03
5.604530390120210370e-03
5.602575190717828946e-03
5.600619991315447521e-03
5.598664791913066097e-03
5.596709592511128761e-03
5.594754393108747337e-03
5.592799193706365912e-03
5.590843994304428577e-03
5.588888794902047152e-03
1.058693359549955915e-02
1.058497839609762181e-02
1.058302319669524039e-02
5.581067997292965543e-03
5.579112797890584119e-03
5.577157598488646784e-03
5.575202399086265359e-03
5.573247199683883935e-03
5.571292000281946599e-03
5.569336800879565175e-03
5.567381601477183750e-03
5.654264020744648178e-04
5.634712026725274825e-04
5.615160032701460580e-04
5.595608038677646334e-04
5.576056044658272981e-04
5.556504050634458736e-04
-4.446304794338828970e-03
-4.448259993740766305e-03
-4.450215193143147729e-03
-9.452170392545422573e-03
-9.454125591947803997e-03
-9.456080791349741332e-03
-9.458035990752122757e-03
-9.459991190154504181e-03
-9.461946389556441517e-03
-4.463901588958929523e-03
-4.465856788361310947e-03
-4.467811987763248283e-03
5.302328128342637115e-04
5.528277613432219795e-03
5.526322414029838370e-03
5.524367214627901035e-03
5.522412015225519610e-03
5.520456815823138186e-03
5.518501616421200850e-03
5.516546417018819426e-03
5.514591217616438001e-03
5.512636018214500666e-03
5.510680818812119242e-03
5.508725619409737817e-03
5.067704200070188847e-04
5.048152206050815494e-04
5.028600212027001248e-04
5.009048218003187003e-04
4.989496223983813650e-04
4.969944229959999404e-04
4.950392235936185159e-04
5.493084024191574599e-03
1.049112882478953068e-02
1.048917362538714926e-02
1.548721842598466125e-02
1.048526322658283050e-02
1.048330802718044907e-02
1.048135282777806765e-02
5.479397628376236895e-03
5.477442428973855471e-03
4.754872295711365382e-04
4.735320301687551137e-04
5.471576830767155286e-03
5.469621631364773862e-03
5.467666431962392437e-03
5.465711232560455102e-03
1.046375603315796710e-02
1.046180083375558567e-02
5.459845634353754917e-03
5.457890434951373493e-03
5.455935235548992068e-03
5.453980036146610644e-03
5.452024836744673308e-03
5.450069637342291884e-03
5.448114437939910459e-03
5.446159238537973124e-03
4.442040391352541917e-04
5.442248839733210275e-03
4.402936403309354318e-04
4.383384409285540073e-04
-4.563616758473720836e-03
-4.565571957876102260e-03
4.324728427218538229e-04
4.305176433194723984e-04
4.285624439170909739e-04
4.266072445151536385e-04
5.424652045113109722e-03
5.422696845710728297e-03
5.420741646308346873e-03
5.418786446906409537e-03
1.041683124750392153e-02
5.414876048101646688e-03
5.412920848699709353e-03
5.410965649297327928e-03
5.409010449894946504e-03
5.407055250493009169e-03
5.405100051090627744e-03
5.403144851688246320e-03
5.401189652285864895e-03
5.399234452883927560e-03
5.397279253481546135e-03
5.395324054079164711e-03
5.393368854677227375e-03
3.914136552745084430e-04
3.894584558721270184e-04
5.387503256470527191e-03
5.385548057068145766e-03
5.383592857665764342e-03
5.381637658263382917e-03
3.796824588611080742e-04
3.777272594587266497e-04
5.375772060056682733e-03
5.373816860654745398e-03
5.371861661252363973e-03
5.369906461849982549e-03
3.679512624477077054e-04
3.659960630453262809e-04
-4.635959136356948562e-03
-4.637914335759329987e-03
-4.639869535161267322e-03
-4.641824734563648747e-03
-9.643779933965923590e-03
-4.645735133367967507e-03
-4.647690332770348931e-03
-4.649645532172730356e-03
-4.651600731575111780e-03
-4.653555930977049115e-03
3.444888696204628786e-04
3.425336702180814541e-04
5.340578470816481627e-03
5.338623271414100202e-03
5.336668072011718778e-03
5.334712872609781442e-03
5.332757673207400018e-03
5.330802473805018593e-03
5.328847274402637169e-03
1.032689207500059325e-02
1.032493687559821183e-02
1.032298167619583040e-02
1.032102647679389307e-02
1.031907127739151164e-02
1.031711607798913022e-02
1.031516087858719288e-02
1.031320567918481146e-02
1.031125047978243003e-02
5.309295280380155191e-03
5.307340080978217856e-03
5.305384881575836431e-03
5.303429682173455006e-03
5.301474482771517671e-03
5.299519283369136247e-03
5.297564083966754822e-03
5.295608884564817487e-03
5.293653685162436062e-03
5.291698485760054638e-03
2.897432863573357054e-04
2.877880869553983700e-04
2.858328875530169455e-04
-4.716122311849257898e-03
-4.718077511251195233e-03
-4.720032710653576657e-03
-4.721987910055958082e-03
-4.723943109457895417e-03
2.741016911396165767e-04
2.721464917372351522e-04
-4.729808707665039691e-03
-9.731763907066870445e-03
-9.733719106469251869e-03
-4.735674305871739875e-03
2.623704947262162079e-04
5.260415295324172291e-03
1.025846009592168429e-02
1.025650489651930286e-02
5.254549697117472107e-03
5.252594497715090682e-03
5.250639298312709258e-03
2.486840989104344146e-04
5.246728899508390498e-03
1.024477370010590249e-02
1.024281850070396516e-02
5.240863301301690313e-03
2.389081018989713812e-04
2.369529024965899566e-04
5.234997703094990129e-03
5.233042503692608705e-03
5.231087304290227280e-03
5.229132104888289945e-03
5.227176905485908520e-03
5.225221706083527096e-03
5.223266506681589760e-03
5.221311307279208336e-03
5.219356107876826911e-03
5.217400908474445487e-03
5.215445709072508151e-03
5.213490509670126727e-03
5.211535310267745302e-03
5.209580110865807967e-03
5.207624911463426542e-03
2.056697120607076101e-04
2.037145126587702748e-04
2.017593132563888503e-04
1.998041138540074257e-04
1.978489144516260012e-04
1.958937150496886659e-04
1.939385156473072414e-04
1.919833162449258168e-04
1.900281168429884815e-04
1.880729174406070570e-04
-4.813882281961667786e-03
-4.815837481364049211e-03
-4.817792680765986546e-03
-9.819747880168261389e-03
-9.821703079570642814e-03
-4.823658278972686730e-03
1.743865216248252636e-04
5.172431322222781347e-03
5.170476122820844012e-03
1.685209234181250793e-04
1.665657240157436547e-04
1.646105246133622302e-04
1.626553252114248949e-04
1.607001258090434703e-04
-4.841255073593231373e-03
1.567897270047247105e-04
1.548345276023432859e-04
1.528793281999618614e-04
1.509241287980245261e-04
1.014896892939587403e-02
1.514701372999338602e-02
1.514505853059100460e-02
1.014310333118917384e-02
1.014114813178679242e-02
1.013919293238441099e-02
5.137237732982580241e-03
5.135282533580198816e-03
5.133327334177817391e-03
1.013137213477577347e-02
5.129416935373498632e-03
5.127461735971117207e-03
5.125506536568735783e-03
5.123551337166798447e-03
1.012159613776431044e-02
1.011964093836192902e-02
1.011768573895999168e-02
5.115730539557716838e-03
1.137753401549979060e-04
1.118201407526164814e-04
1.098649413506791461e-04
-4.892090258051595697e-03
-4.894045457453977122e-03
-4.896000656855914457e-03
-4.897955856258295881e-03
-4.899911055660677306e-03
-4.901866255062614641e-03
-9.903821454464889484e-03
-9.905776653867270909e-03
-9.907731853269652333e-03
-4.909687052671696250e-03
8.835774792581574388e-05
8.640254852343431935e-05
8.444734912149698403e-05
8.249214971911555949e-05
5.080536950317071643e-03
5.078581750915134307e-03
5.076626551512752883e-03
1.007467135211026488e-02
1.007271615270788345e-02
1.007076095330594612e-02
1.006880575390356469e-02
1.006685055450118327e-02
5.064895355099352514e-03
6.294015569663358178e-05
-4.939015043705641261e-03
-4.940970243107578597e-03
5.707455748993339739e-05
5.055119358087889481e-03
5.053164158685508056e-03
1.005120895928346414e-02
5.049253759881189296e-03
4.729856047847036393e-05
4.534336107653302861e-05
-4.956611838325741815e-03
-4.958567037728123239e-03
-9.960522237130398082e-03
-4.962477436532441999e-03
-9.964432635934716842e-03
-9.966387835337098267e-03
-1.496834303473892902e-02
-1.497029823414131045e-02
-1.497225343354369187e-02
-1.997420863294596671e-02
-1.497616383234801063e-02
-9.978119031750498635e-03
-4.980074231152986641e-03
-4.982029430554923977e-03
5.016015370042925525e-03
1.001406017064043752e-02
1.001210497123850018e-02
1.001014977183611876e-02
1.000819457243373733e-02
1.000623937303180000e-02
1.000428417362941858e-02
1.500232897422693057e-02
1.000037377482465573e-02
1.499841857542261181e-02
9.996463376020336966e-03
9.994508176617955542e-03
4.992552977216124788e-03
9.990597777813636782e-03
4.988642578411361939e-03
-1.331262099091290452e-05
-1.526782039329432905e-05
4.982776980204661754e-03
4.980821780802280330e-03
-2.113341859999451344e-05
4.976911381997961570e-03
4.974956182595580145e-03
4.973000983193642810e-03
4.971045783791261385e-03
4.969090584388879961e-03
-3.286461501383897144e-05
-3.481981441577630676e-05
-5.036775013818051150e-03
-5.038730213220432574e-03
-5.040685412622369910e-03
-4.264061202485791569e-05
4.955404188573098168e-03
4.953448989171160832e-03
-4.850621023155810008e-05
-5.046140963393952461e-05
-5.052416609036214368e-03
-5.054371808438151703e-03
-5.632700784063970900e-05
-5.828220724302113354e-05
4.939762593355379039e-03
4.937807393952997614e-03
-6.414780544972131793e-05
4.933896995148678855e-03
4.931941795746297430e-03
4.929986596343916005e-03
4.928031396941534581e-03
-7.392380246074026218e-05
-7.587900186312168671e-05
-5.077834201265396530e-03
-5.079789400667333865e-03
-1.008174460006960871e-02
-1.008369979947199013e-02
-5.085654998874034050e-03
-1.008761019827630889e-02
-1.508956539767858374e-02
-1.509152059708096516e-02
-1.509347579648290250e-02
-1.509543099588528392e-02
-1.009738619528777193e-02
-5.099341394689815843e-03
4.898703405908033659e-03
4.896748206505652234e-03
4.894793007103270810e-03
-1.071621922990040332e-04
4.890882608298952050e-03
4.888927408896570626e-03
4.886972209494633290e-03
4.885017010092251866e-03
9.883061810689763860e-03
1.488110661128771994e-02
1.487915141188533852e-02
1.987719621248285051e-02
1.987524101308046909e-02
1.987328581367853175e-02
1.487133061427625691e-02
9.869375414873982066e-03
9.867420215472044731e-03
4.865465016069769888e-03
4.863509816667388463e-03
4.861554617265451128e-03
4.859599417863069704e-03
-1.423557815396492288e-04
-1.443109809420306533e-04
4.853733819656369519e-03
-1.482213797463494132e-04
4.849823420851606670e-03
4.847868221449669335e-03
4.845913022047287910e-03
4.843957822644906486e-03
4.842002623242969150e-03
4.840047423840587726e-03
4.838092224438206301e-03
-1.638629749645126310e-04
-1.658181743664499663e-04
-1.677733737688313909e-04
-1.697285731712128154e-04
-5.171683772573043569e-03
-5.173638971975424994e-03
-5.175594171377806418e-03
-5.177549370780187843e-03
-5.179504570182125178e-03
-5.181459769584506603e-03
-5.183414968986888027e-03
-5.185370168388825363e-03
-5.187325367791206787e-03
-5.189280567193588212e-03
-5.191235766595525547e-03
-1.019319096599780039e-02
-5.195146165400288396e-03
-5.197101364802669821e-03
-5.199056564204607156e-03
-2.010117636070951619e-04
4.797033036990860921e-03
9.795077837588817005e-03
9.793122638186435580e-03
9.791167438784054156e-03
9.789212239382116820e-03
9.787257039979735396e-03
4.785301840577460553e-03
4.783346641175079128e-03
4.781391441773141793e-03
9.779436242370653787e-03
4.777481042968378944e-03
4.775525843566441608e-03
4.773570644164060184e-03
4.771615444761678759e-03
4.769660245359741424e-03
4.767705045957359999e-03
4.765749846554978575e-03
4.763794647152597150e-03
4.761839447750659815e-03
4.759884248348278390e-03
4.757929048945896966e-03
4.755973849543959631e-03
4.754018650141578206e-03
4.752063450739196782e-03
4.750108251336815357e-03
9.748153051934771440e-03
9.746197852532390016e-03
4.744242653130115173e-03
4.742287453728177837e-03
4.740332254325796413e-03
4.738377054923414988e-03
4.736421855521477653e-03
4.734466656119096228e-03
-2.674885432836227039e-04
-5.269443742685897547e-03
-1.027139894208772830e-02
-1.027335414149010973e-02
-2.753093408927043129e-04
4.722735459705695860e-03
9.720780260303207854e-03
9.718825060900826429e-03
9.716869861498889094e-03
4.714914662096614251e-03
-2.870405373061046816e-04
-2.889957367084861062e-04
-2.909509361104234415e-04
-2.929061355128048660e-04
4.705138665085151217e-03
4.703183465683213882e-03
4.701228266280832457e-03
9.699273066878344451e-03
9.697317867476407116e-03
4.695362668074132273e-03
4.693407468671750848e-03
4.691452269269369424e-03
-3.105029301329054192e-04
-3.124581295352868437e-04
4.685586671062669240e-03
4.683631471660731904e-03
4.681676272258350480e-03
4.679721072855969055e-03
4.677765873453587631e-03
4.675810674051650295e-03
4.673855474649268871e-03
-3.280997247534500616e-04
-3.300549241553873969e-04
-3.320101235577688215e-04
-3.339653229601502460e-04
-5.335920522361981000e-03
-3.378757217644690058e-04
-3.398309211668504304e-04
-3.417861205692318549e-04
-5.343741319971062609e-03
-5.345696519373444033e-03
-5.347651718775825458e-03
-5.349606918177762793e-03
-1.035156211758003764e-02
-1.535351731698231248e-02
-2.435547251638459088e-02
-2.435742771578697230e-02
-2.435938291518935372e-02
-2.036133811459173160e-02
-2.036329331399366893e-02
-2.036524851339605036e-02
-1.536720371279809427e-02
-1.536915891220003161e-02
-1.037111411160251961e-02
-5.373069311005007620e-03
-1.037502451040683837e-02
-1.037697970980921980e-02
-1.037893490921160122e-02
-1.038089010861398265e-02
-1.538284530801581340e-02
-1.038480050741830141e-02
-5.386755706820789413e-03
-3.887109062228333300e-04
-5.390666105625108173e-03
-5.392621305027489598e-03
-3.945765044295335144e-04
9.603468296168315987e-03
9.601513096765934563e-03
4.599557897363659720e-03
-4.023973020386151234e-04
-4.043525014409965479e-04
-4.063077008433779724e-04
-4.082629002453153078e-04
-4.102180996476967323e-04
-4.121732990500781568e-04
4.585871501547877926e-03
4.583916302145940591e-03
4.581961102743559167e-03
4.580005903341177742e-03
4.578050703939240407e-03
4.576095504536858982e-03
4.574140305134477558e-03
9.572185105732433641e-03
9.570229906330052216e-03
9.568274706927670792e-03
4.566319507525395949e-03
-4.356356918768788944e-04
-4.375908912792603189e-04
-4.395460906816417435e-04
4.558498709916758429e-03
-4.434564894859605033e-04
4.554588311111995580e-03
-4.473668882902792632e-04
4.550677912307676820e-03
9.548722712905188814e-03
9.546767513502807390e-03
1.454481231410076347e-02
1.954285711469827547e-02
1.954090191529589404e-02
1.953894671589395671e-02
1.453699151649168186e-02
9.535036317089407021e-03
9.533081117687469686e-03
9.531125918285088261e-03
9.529170718882706836e-03
9.527215519480325412e-03
9.525260320078388077e-03
9.523305120676006652e-03
9.521349921273625228e-03
9.519394721871687892e-03
9.517439522469306468e-03
9.515484323066925043e-03
9.513529123664543619e-03
4.511573924262712865e-03
4.509618724860331440e-03
4.507663525457950016e-03
9.505708326055906099e-03
9.503753126653524674e-03
4.501797927251249831e-03
-5.001572721510250119e-04
-5.021124715534064364e-04
-5.040676709557878610e-04
-5.060228703581692855e-04
4.492021930240230887e-03
4.490066730837849462e-03
-5.118884685648694699e-04
-5.138436679668068052e-04
-5.157988673691882298e-04
-5.177540667715696543e-04
-5.519709266173400408e-03
-5.521664465575781833e-03
-5.236196649782698387e-04
-5.255748643806512632e-04
-5.275300637825885985e-04
-5.294852631849700231e-04
-5.531440462587244866e-03
-5.333956619892887829e-04
4.464649138608667300e-03
9.462693939206179294e-03
9.460738739804241959e-03
4.458783540401967116e-03
4.456828340999585691e-03
4.454873141597204267e-03
-5.470820578050705763e-04
-5.490372572074520008e-04
-5.509924566098334253e-04
4.447052343988566747e-03
4.445097144586185323e-03
-5.568580548165336097e-04
-5.588132542189150342e-04
-5.607684536208523696e-04
4.437276346977103714e-03
4.435321147574722289e-03
4.433365948172784954e-03
4.431410748770403529e-03
-5.705444506323154030e-04
-5.724996500342527384e-04
-5.744548494366341629e-04
-5.764100488390155874e-04
4.421634751758940496e-03
4.419679552357003161e-03
-5.822756470457157718e-04
-5.842308464480971963e-04
-5.861860458500345317e-04
-5.881412452524159562e-04
4.409903555345540127e-03
4.407948355943602792e-03
4.405993156541221367e-03
4.404037957138839943e-03
4.402082757736458518e-03
4.400127558334521183e-03
4.398172358932139758e-03
4.396217159529758334e-03
4.394261960127820998e-03
4.392306760725439574e-03
4.390351561323058149e-03
4.388396361921120814e-03
4.386441162518739389e-03
4.384485963116357965e-03
-6.174692362863609674e-04
-6.194244356882983027e-04
-6.213796350906797272e-04
-6.233348344930611518e-04
-6.252900338949984871e-04
-6.272452332973799116e-04
-5.629200432699654755e-03
-5.631155632102036179e-03
-5.633110831503973515e-03
-5.635066030906354939e-03
-1.063702123030862978e-02
-5.638976429710673699e-03
-6.409316291131617049e-04
-6.428868285155431295e-04
-5.644842027917373883e-03
-1.064679722731964873e-02
-1.064875242672203015e-02
-5.650707626124518157e-03
-5.652662825526455492e-03
-5.654618024928836917e-03
-5.656573224331218341e-03
-6.585284237332622581e-04
-6.604836231356436826e-04
4.337561177462312401e-03
4.335605978060375065e-03
4.333650778657993641e-03
4.331695579255612216e-03
9.329740379853124210e-03
4.327785180451293456e-03
4.325829981048912032e-03
-6.761252183538069005e-04
-6.780804177557442358e-04
-5.680035617158019079e-03
-1.068199081656029392e-02
-5.683946015962337839e-03
-5.685901215364719263e-03
-5.687856414767100688e-03
-5.689811614169482112e-03
-5.691766813571419448e-03
-5.693722012973800872e-03
-6.956772123762888782e-04
-6.976324117782262135e-04
-5.699587611180501057e-03
-5.701542810582882481e-03
-1.070349800998515732e-02
-1.070545320938709466e-02
-5.707408408789582666e-03
-7.093636081920706715e-04
4.288681192406329501e-03
4.286725993003948076e-03
4.284770793601566652e-03
-7.171844058007081912e-04
-5.719139605202983034e-03
-1.072109480460525788e-02
-1.072305000400763930e-02
-1.072500520340957664e-02
-5.726960402812064643e-03
-5.728915602214446068e-03
-7.308708016164899846e-04
4.267173998981466099e-03
4.265218799579084674e-03
4.263263600177147339e-03
4.261308400774765914e-03
9.259353201372277908e-03
9.257398001969896484e-03
9.255442802567959149e-03
1.425348760316547114e-02
9.251532403763196299e-03
4.249577204361365546e-03
-7.523779950413533868e-04
-5.754333194443628230e-03
-5.756288393845565565e-03
-5.758243593247946990e-03
-5.760198792650328414e-03
-5.762153992052709839e-03
-1.076410919145454059e-02
-5.766064390857028599e-03
-5.768019590259410023e-03
-7.699747896614539400e-04
4.228070010936502143e-03
9.226114811534014137e-03
1.422415961213152613e-02
1.422220441272958880e-02
1.422024921332720737e-02
1.421829401392482595e-02
9.216338814522995193e-03
4.214383615120720350e-03
4.212428415718338925e-03
4.210473216316401590e-03
4.208518016914020166e-03
4.206562817511638741e-03
9.204607618109150735e-03
9.202652418707213400e-03
9.200697219304831975e-03
9.198742019902450551e-03
9.196786820500513215e-03
9.194831621098131791e-03
9.192876421695750366e-03
4.190921222293919612e-03
4.188966022891538188e-03
4.187010823489156763e-03
4.185055624086775339e-03
4.183100424684838003e-03
4.181145225282456579e-03
9.179190025879968573e-03
4.177234826478137819e-03
4.175279627075756395e-03
4.173324427673374970e-03
-5.828630771728793292e-03
-1.083058597113106813e-02
-1.083254117053344956e-02
-1.083449636993583098e-02
-1.583645156933766174e-02
-2.083840676874038067e-02
-2.484036196814276565e-02
-2.984231716754459640e-02
-2.484427236694708441e-02
-2.484622756634946583e-02
-2.984818276575174067e-02
-2.985013796515367801e-02
-2.485209316455616602e-02
-2.985404836395844086e-02
-2.485600356336048478e-02
-2.485795876276286620e-02
-2.485991396216524763e-02
-1.586186916156684390e-02
-5.863824360969438487e-03
-8.657795603719264932e-04
4.132265240226029590e-03
9.130310040823985673e-03
9.128354841421604249e-03
1.412639964201911624e-02
1.412444444261717891e-02
1.912248924321469090e-02
1.912053404381230948e-02
1.911857884441037214e-02
1.411662364500809730e-02
1.911466844560560929e-02
1.911271324620322787e-02
1.911075804680129053e-02
1.410880284739901569e-02
1.410684764799663427e-02
9.104892448594803511e-03
4.102937249192528668e-03
-8.990179502101902642e-04
-9.009731496121275995e-04
-9.029283490145090241e-04
-9.048835484168904486e-04
-9.068387478192718731e-04
4.091206052779128299e-03
4.089250853376746875e-03
4.087295653974365450e-03
4.085340454572428115e-03
4.083385255170046690e-03
4.081430055767665266e-03
-9.205251436350536665e-04
-9.224803430369910018e-04
-9.244355424393724263e-04
4.073609258158583657e-03
-9.283459412436911862e-04
-9.303011406460726107e-04
-9.322563400484540352e-04
4.065788460549946137e-03
4.063833261147564713e-03
4.061878061745183288e-03
4.059922862342801864e-03
4.057967662940864528e-03
9.056012463538376522e-03
1.405405726413588852e-02
1.405210206473395118e-02
1.405014686533156976e-02
1.404819166592918833e-02
9.046236466527357578e-03
4.044281267125082735e-03
9.042326067722594729e-03
4.040370868320319886e-03
-9.615843310819549572e-04
-5.963539530484229800e-03
-5.965494729886611225e-03
-5.967449929288548560e-03
-5.969405128690929985e-03
-9.713603280934179907e-04
-9.733155274953553260e-04
4.024729273102600757e-03
-9.772259263001181750e-04
-5.979181125702393018e-03
-1.098113632510422377e-02
-5.983091524506711778e-03
-9.850467239091997840e-04
4.012998076689200389e-03
4.011042877286818964e-03
4.009087677884437539e-03
-9.928675215182813929e-04
-9.948227209202187282e-04
-5.996777920322493571e-03
-9.987331197249815773e-04
-1.000688319126918913e-03
3.997356481471037171e-03
3.995401282068655746e-03
3.993446082666718411e-03
3.991490883264336986e-03
-1.010464316138381946e-03
-1.012419515540763371e-03
-1.014374714942700706e-03
-1.016329914345082130e-03
-6.018285113747356974e-03
-6.020240313149294309e-03
-1.102219551255156915e-02
-1.102415071195395058e-02
-1.602610591135578133e-02
-2.102806111075850026e-02
-2.103001631016088169e-02
-2.103197150956326311e-02
-1.603392670896486294e-02
-6.035881908367457527e-03
-1.037837107769945533e-03
3.960207692828454640e-03
8.958252493425966634e-03
8.956297294023585209e-03
3.954342094621754455e-03
3.952386895219373031e-03
3.950431695816991606e-03
3.948476496414610182e-03
8.946521297012566265e-03
8.944566097610184841e-03
8.942610898207803416e-03
1.394065569880575950e-02
1.393870049940337807e-02
1.393674530000099665e-02
1.393479010059905931e-02
8.932834901196784472e-03
8.930879701794403047e-03
3.928924502392128204e-03
-6.073030697010040058e-03
-1.107498589641231490e-02
-1.107694109581469633e-02
-1.107889629521663366e-02
-1.108085149461901509e-02
-1.608280669402128993e-02
-2.108476189342400886e-02
-2.508671709282594975e-02
-3.008867229222822459e-02
-3.009062749163060602e-02
-3.509258269103243677e-02
-3.509453789043481819e-02
-3.509649308983719962e-02
-3.009844828923924354e-02
-3.010040348864162496e-02
-3.010235868804400639e-02
-2.510431388744649439e-02
-1.610626908684809067e-02
-1.110822428625057867e-02
-1.110179485653173259e-03
3.887865314945226913e-03
8.885910115542738907e-03
1.388395491614025090e-02
1.388199971673831357e-02
1.388004451733593214e-02
1.387808931793355072e-02
1.387613411853116929e-02
8.874178919129338539e-03
3.872223719727063695e-03
3.870268520324682271e-03
-1.131686679077592572e-03
-1.133641878479973997e-03
3.864402922117982087e-03
-1.137552277284292757e-03
-1.139507476686674181e-03
-1.114146267608884244e-02
-2.114341787549145479e-02
-2.514537307489339568e-02
-3.014732827429567052e-02
-2.514928347369815853e-02
-2.115123867310009231e-02
-2.115319387250247374e-02
-2.515514907190485872e-02
-2.515710427130724014e-02
-2.515905947070917748e-02
-2.116101467011155535e-02
-2.116296986951393677e-02
-2.116492506891587411e-02
-2.116688026831825553e-02
-2.116883546772063696e-02
-1.617079066712223678e-02
-1.617274586652461821e-02
-1.117470106592710621e-02
-1.176656265329700801e-03
8.821388535268592790e-03
1.881943333586599820e-02
2.281747813646362033e-02
2.281552293706168300e-02
1.881356773765929802e-02
2.281161253825692015e-02
2.280965733885498281e-02
2.780770213945293889e-02
3.280574694005045089e-02
2.780379174064817605e-02
2.280183654124590120e-02
1.879988134184351622e-02
1.379792614244124138e-02
1.379597094303930405e-02
8.794015743637029203e-03
8.792060544234647779e-03
3.790105344832817025e-03
-1.211849854569901908e-03
-1.213805053972283332e-03
3.784239746625672751e-03
8.782284547223628834e-03
1.378032934782114083e-02
1.377837414841875940e-02
8.776418949016928650e-03
3.774463749614653807e-03
3.772508550212272382e-03
-1.229446649190446550e-03
-1.231401848592383885e-03
-1.233357047994765310e-03
-6.235312247397040153e-03
-6.237267446798977488e-03
-6.239222646201358913e-03
-6.241177845603740337e-03
-1.243133045005784254e-03
-1.245088244408165679e-03
-1.247043443810547103e-03
-1.248998643212928528e-03
-6.250953842614759282e-03
-6.252909042017140706e-03
-1.625486424141930897e-02
-1.625681944082124630e-02
-1.625877464022362773e-02
-1.626072983962600915e-02
-1.626268503902794649e-02
-1.626464023843032791e-02
-1.626659543783270934e-02
-2.126855063723542827e-02
-2.127050583663736560e-02
-1.627246103603940952e-02
-1.127441623544189753e-02
-6.276371434843941444e-03
3.721673365753908058e-03
8.719718166351420052e-03
1.871776296694926955e-02
2.271580776754689168e-02
2.271385256814451026e-02
1.371189736874223186e-02
8.709942169340401108e-03
8.707986969938019683e-03
8.706031770535638259e-03
1.370407657113359434e-02
1.370212137173121292e-02
1.370016617232883149e-02
8.698210972926556650e-03
8.696255773524619315e-03
8.694300574122237890e-03
8.692345374719856466e-03
8.690390175317919130e-03
8.688434975915537706e-03
8.686479776513156281e-03
8.684524577111218946e-03
8.682569377708837521e-03
3.680614178306562678e-03
8.678658978904074672e-03
3.676703779502243918e-03
8.674748580099755912e-03
3.672793380697481069e-03
3.670838181295543734e-03
3.668882981893162309e-03
3.666927782490780885e-03
3.664972583088843550e-03
3.663017383686462125e-03
3.661062184284080701e-03
3.659106984881699276e-03
3.657151785479761941e-03
3.655196586077380516e-03
3.653241386674999092e-03
-1.348713812727275752e-03
-1.350669012129657176e-03
-1.352624211532038601e-03
3.645420589066361572e-03
-1.356534610336357360e-03
-6.358489809738632204e-03
-1.136044500914090705e-02
-6.362400208542950963e-03
-1.136435540794522581e-02
-1.136631060734760723e-02
-1.636826580674943798e-02
-1.637022100615181941e-02
-1.137217620555430742e-02
-1.137413140495668884e-02
-1.137608660435862618e-02
-1.137804180376100760e-02
-1.137999700316338902e-02
-1.638195220256521978e-02
-2.138390740196793871e-02
-1.638586260136998263e-02
-1.138781780077202654e-02
-1.389773000174621131e-03
3.608271800423334952e-03
3.606316601020953527e-03
3.604361401619016192e-03
3.602406202216634767e-03
8.600451002814146761e-03
1.359849580341210284e-02
1.359654060400972142e-02
1.359458540460734000e-02
8.592630205205509242e-03
8.590675005803127817e-03
8.588719806400746393e-03
8.586764606998364968e-03
8.584809407596427633e-03
8.582854208194046208e-03
3.580899008791771365e-03
-1.421056190610503478e-03
-1.423011390012884902e-03
-6.424966589415159746e-03
-6.426921788817097081e-03
-6.428876988219478505e-03
-1.143083218762175335e-02
-1.143278738702413477e-02
-1.143474258642607211e-02
-6.436697785828560114e-03
-1.438652985231048120e-03
3.559391815367352052e-03
-1.442563384035366880e-03
-1.444518583437748305e-03
-1.144647378283991657e-02
-1.144842898224185390e-02
-1.145038418164423533e-02
-1.645233938104651017e-02
-1.645429458044844750e-02
-1.645624977985082893e-02
-1.645820497925321035e-02
-2.146016017865548520e-02
-2.146211537805786662e-02
-2.146407057746024805e-02
-2.146602577686262947e-02
-2.146798097626456681e-02
-2.546993617566695178e-02
-2.147189137506932965e-02
-2.147384657447126699e-02
-2.147580177387364841e-02
-1.647775697327569233e-02
-1.147971217267773625e-02
-1.148166737208011767e-02
-6.483622571482605679e-03
-1.148557777088488052e-02
-6.487532970286924439e-03
-6.489488169689305863e-03
-6.491443369091687288e-03
-6.493398568493624623e-03
-1.495353767896112629e-03
-1.497308967298494053e-03
-1.499264166700431389e-03
-6.501219366102706232e-03
-1.503174565505194238e-03
3.494870235092761845e-03
8.492915035690717929e-03
1.349095983628822992e-02
1.348900463688584850e-02
1.348704943748391116e-02
1.348509423808152974e-02
8.483139038679254895e-03
8.481183839276873471e-03
3.479228639875042717e-03
-1.522726559527676216e-03
-1.524681758930057640e-03
-1.526636958331994975e-03
-6.528592157734269819e-03
-1.153054735713654466e-02
-6.532502556538588578e-03
-6.534457755940970003e-03
3.463587044656879499e-03
8.461631845254391493e-03
8.459676645852454158e-03
8.457721446450072733e-03
8.455766247047691309e-03
8.453811047645753973e-03
1.345185584824326597e-02
1.344990064884088454e-02
1.344794544943894721e-02
8.445990250036672364e-03
3.444035050634397521e-03
3.442079851232016097e-03
3.440124651830078761e-03
8.438169452427590755e-03
1.343621425302510275e-02
1.343425905362316541e-02
1.343230385422078399e-02
1.343034865481840257e-02
1.842839345541635865e-02
1.842643825601397722e-02
1.342448305661170238e-02
8.422527857209427538e-03
8.420572657807490202e-03
8.418617458405108778e-03
3.416662259002833935e-03
3.414707059600896599e-03
3.412751860198515175e-03
-1.589203339204203758e-03
-1.591158538606585182e-03
-6.593113738008415936e-03
-6.595068937410797361e-03
-6.597024136813178785e-03
-6.598979336215116120e-03
-1.160093453561739096e-02
-2.160288973502000331e-02
-2.560484493442194420e-02
-2.560680013382432563e-02
-2.160875533322670350e-02
-2.161071053262908492e-02
-1.161266573203079133e-02
-6.614620931433279338e-03
3.383423869164570164e-03
1.338146866976241967e-02
1.337951347036003824e-02
8.377558270957763398e-03
8.375603071555826062e-03
3.373647872153551219e-03
3.371692672751169795e-03
8.369737473348681789e-03
8.367782273946744453e-03
8.365827074544363029e-03
1.336387187514187502e-02
8.361916675740044269e-03
1.335996147633755626e-02
1.335800627693517484e-02
8.356051077533344085e-03
8.354095878130962660e-03
8.352140678728581236e-03
8.350185479326199811e-03
8.348230279924262476e-03
8.346275080521881051e-03
8.344319881119499627e-03
8.342364681717562291e-03
8.340409482315180867e-03
8.338454282912799442e-03
8.336499083510418018e-03
3.334543884108587264e-03
-1.667411315294131668e-03
-1.669366514696513093e-03
-1.671321714098450428e-03
-1.673276913500831853e-03
-1.675232112903213277e-03
-6.677187312305044031e-03
-1.679142511707532037e-03
-1.681097711109913462e-03
-1.683052910512294886e-03
-6.685008109914125640e-03
-1.668696330931629390e-02
-2.168891850871901283e-02
-2.169087370812095017e-02
-2.169282890752333159e-02
-2.569478410692571657e-02
-2.569673930632765391e-02
-2.569869450573003533e-02
-2.170064970513241320e-02
-1.670260490453445712e-02
-1.670456010393639446e-02
-1.670651530333877588e-02
-1.170847050274126389e-02
-6.710425702143307802e-03
-1.712380901545795808e-03
3.285663899052160275e-03
3.283708699650222940e-03
3.281753500247841515e-03
3.279798300845460091e-03
3.277843101443078666e-03
3.275887902041141331e-03
3.273932702638759906e-03
3.271977503236378482e-03
3.270022303834441146e-03
-1.731932895568277786e-03
-6.733888094970552629e-03
-6.735843294372489964e-03
-1.173779849377476481e-02
-6.739753693177252813e-03
-6.741708892579634238e-03
-1.174366409198146499e-02
-1.674561929138373984e-02
-1.674757449078612126e-02
-1.674952969018805859e-02
-1.675148488959044002e-02
-1.675344008899282144e-02
-1.675539528839520287e-02
-1.675735048779714020e-02
-1.675930568719952163e-02
-1.676126088660190305e-02
-1.676321608600384039e-02
-1.676517128540622181e-02
-1.676712648480860324e-02
-1.176908168421064715e-02
-6.771036883613135160e-03
-1.772992083015623166e-03
-1.774947282418004590e-03
3.223097518180395582e-03
8.221142318777907576e-03
1.321918711937541957e-02
1.321723191997348223e-02
1.321527672057110081e-02
1.321332152116871939e-02
1.321136632176678205e-02
1.320941112236440063e-02
1.820745592296191262e-02
2.220550072355953475e-02
2.720354552415793492e-02
2.220159032475521599e-02
2.219963512535283456e-02
1.819767992595089368e-02
1.319572472654861883e-02
1.319376952714623741e-02
8.191814327744406654e-03
3.189859128342131811e-03
-1.812096071060587121e-03
-1.814051270462968546e-03
-6.816006469864799300e-03
-6.817961669267180724e-03
-1.181991686866945557e-02
-1.182187206807139290e-02
-1.182382726747377433e-02
-1.182578246687615575e-02
-6.827737666278643758e-03
-1.182969286568047451e-02
-1.183164806508285594e-02
-1.183360326448523736e-02
-1.683555846388706811e-02
-2.583751366328979060e-02
-2.583946886269217202e-02
-2.184142406209410581e-02
-2.184337926149648723e-02
-1.684533446089853115e-02
-1.184728966030101915e-02
-1.184924485970295649e-02
-6.851200059105444495e-03
-6.853155258507825920e-03
3.144889542090467671e-03
1.314293434268787308e-02
1.814097914328538508e-02
1.813902394388344774e-02
1.813706874448106632e-02
1.313511354507879147e-02
1.313315834567641005e-02
1.313120314627447272e-02
1.812924794687198471e-02
1.812729274746960328e-02
1.812533754806766595e-02
1.312338234866539111e-02
8.121427149263116263e-03
3.119471949861285509e-03
3.117516750458904085e-03
3.115561551056522660e-03
3.113606351654141235e-03
3.111651152252203900e-03
3.109695952849822476e-03
-1.892259246552896457e-03
-6.894214445954727211e-03
-6.896169645357108635e-03
-1.189812484475938348e-02
-1.190008004416176490e-02
-1.690203524356359566e-02
-2.190399044296631459e-02
-2.190594564236869601e-02
-2.590790084177063690e-02
-2.590985604117301833e-02
-2.591181124057539975e-02
-2.191376643997733353e-02
-1.691572163937937745e-02
-1.191767683878186546e-02
-6.919632038184353462e-03
-1.921587237586397379e-03
-1.923542436988778803e-03
3.074502363609177280e-03
8.072547164207133363e-03
3.070591964804858520e-03
3.068636765402477096e-03
3.066681566000539760e-03
-1.935273633402179172e-03
-1.937228832804560597e-03
3.060815967793395487e-03
3.058860768391458151e-03
8.056905568988970145e-03
3.054950369586695302e-03
3.052995170184757967e-03
3.051039970782376543e-03
8.049084771379888537e-03
8.047129571977951201e-03
1.304517437257546320e-02
1.804321917317297519e-02
1.804126397377059376e-02
1.803930877436865643e-02
1.803735357496627500e-02
1.303539837556400016e-02
8.033443176162169408e-03
3.031487976759894565e-03
3.029532777357513140e-03
3.027577577955131716e-03
3.025622378553194380e-03
-1.976332820849524552e-03
3.021711979748431531e-03
8.019756780346387615e-03
8.017801580944006190e-03
1.301584638154151818e-02
1.801389118213947427e-02
1.801193598273709284e-02
1.800998078333471142e-02
1.300802558393243658e-02
1.300607038453049924e-02
1.300411518512811782e-02
8.002159985725842972e-03
-6.999795213676218708e-03
-1.700175041307838697e-02
-2.200370561248110590e-02
-2.600566081188304679e-02
-2.600761601128542821e-02
-2.600957121068780964e-02
-3.101152641009008448e-02
-3.101348160949202182e-02
-3.601543680889429666e-02
-4.101739200829657150e-02
-5.101934720769873977e-02
-5.602130240710101461e-02
-5.602325760650339603e-02
-5.602521280590533337e-02
-4.602716800530748387e-02
-3.602912320471007845e-02
-2.603107840411267304e-02
-1.703303360351426932e-02
-7.034988802916863904e-03
-2.036944002319351910e-03
-2.038899201721289245e-03
-7.040854401123564088e-03
-7.042809600525945513e-03
-7.044764799928326937e-03
-7.046719999330264272e-03
-2.048675198732752278e-03
-7.050630398135027121e-03
-1.705258559753675129e-02
-2.605454079693947378e-02
-3.105649599634174862e-02
-3.105845119574368596e-02
-2.206040639514617041e-02
-1.706236159454821433e-02
-7.064316793950808915e-03
2.933728006647484676e-03
1.793177280724478351e-02
2.192981760784240564e-02
2.692786240844080581e-02
3.192590720903831780e-02
3.192395200963593638e-02
3.692199681023389246e-02
3.692004161083151104e-02
3.691808641142912961e-02
3.691613121202674819e-02
3.191417601262491743e-02
3.191222081322253601e-02
2.691026561382026117e-02
2.690831041441832383e-02
2.190635521501560490e-02
1.790440001561321992e-02
1.290244481621138917e-02
7.900489616809114324e-03
-2.101465582593498027e-03
-7.103420781995772870e-03
-1.210537598139760362e-02
-2.210733118080021598e-02
-3.110928638020249437e-02
-3.111124157960443171e-02
-3.111319677900681313e-02
-3.111515197840919456e-02
-3.611710717781146940e-02
-4.611906237721319357e-02
-5.612101757661580592e-02
-6.112297277601808076e-02
-7.012492797541991507e-02
-7.012688317482229650e-02
-6.112883837422478095e-02
-5.113079357362693145e-02
-4.113274877302908195e-02
-3.113470397243167653e-02
-3.613665917183395138e-02
-4.113861437123578213e-02
-4.614056957063805697e-02
-4.614252477004043840e-02
-4.614447996944237573e-02
-4.614643516884475716e-02
-4.114839036824724516e-02
-3.115034556764939566e-02
-2.215230076705188011e-02
-1.715425596645392403e-02
-2.156211165856625200e-03
7.841833634741668391e-03
1.783987843533907380e-02
2.683792323593703344e-02
2.683596803653509610e-02
2.683401283713271468e-02
3.183205763773022667e-02
3.183010243832828934e-02
3.182814723892590791e-02
3.182619203952352649e-02
3.682423684012103848e-02
4.682228164071933207e-02
5.682032644131673749e-02
6.081837124191435962e-02
6.081641604251242228e-02
5.681446084311003730e-02
4.681250564370786904e-02
3.681055044430525669e-02
2.680859524490353252e-02
2.180664004550081359e-02
2.180468484609843216e-02
2.180272964669649483e-02
2.180077444729411340e-02
2.679881924789206948e-02
2.679686404849013215e-02
2.179490884908741322e-02
1.779295364968502824e-02
1.279099845028275340e-02
1.278904325088081606e-02
1.278708805147843464e-02
1.278513285207605321e-02
1.278317765267411588e-02
1.278122245327173445e-02
7.779267253869459608e-03
7.777312054467522273e-03
7.775356855065140849e-03
2.773401655662866006e-03
2.771446456260484581e-03
2.769491256858547246e-03
-2.232463942544171687e-03
-7.234419141946446530e-03
-1.223637434134827728e-02
-1.223832954075065871e-02
-1.224028474015304013e-02
-7.242239939555084050e-03
-7.244195138957465474e-03
-7.246150338359846899e-03
-7.248105537762228323e-03
-7.250060737164165658e-03
-7.252015936566547083e-03
-7.253971135968928508e-03
-7.255926335370865843e-03
-7.257881534773247267e-03
-2.259836734175735273e-03
2.738208066422220810e-03
2.736252867020283475e-03
7.734297667617795469e-03
7.732342468215414044e-03
7.730387268813476709e-03
7.728432069411095284e-03
7.726476870008713860e-03
2.724521670606883106e-03
-2.277433528795835826e-03
-7.279388728198110670e-03
-1.228134392760038551e-02
-1.728329912700221627e-02
-2.228525432640493520e-02
-2.228720952580731662e-02
-2.228916472520925396e-02
-2.229111992461163538e-02
-2.229307512401401681e-02
-1.729503032341561664e-02
-1.229698552281810464e-02
-7.298940722220592647e-03
2.699104078377256855e-03
7.697148878975212938e-03
7.695193679572831513e-03
7.693238480170450089e-03
7.691283280768512753e-03
7.689328081366131329e-03
2.687372881963856486e-03
-2.314582317438418357e-03
-7.316537516840693200e-03
-7.318492716243074625e-03
-7.320447915645456050e-03
-1.232240311504728680e-02
-1.732435831444956165e-02
-2.632631351385228413e-02
-3.132826871325411489e-02
-4.133022391265628315e-02
-4.633217911205855799e-02
-4.633413431146093941e-02
-4.633608951086287675e-02
-3.633804471026547134e-02
-3.133999990966795934e-02
-2.634195510907000326e-02
-1.734391030847204362e-02
2.654134492125592715e-03
1.765217929272333564e-02
2.665022409332129527e-02
2.664826889391891385e-02
2.664631369451653242e-02
3.664435849511438192e-02
4.164240329571189392e-02
3.664044809630961907e-02
3.663849289690768174e-02
3.163653769750540690e-02
3.163458249810302547e-02
3.163262729870108814e-02
3.163067209929870671e-02
2.662871689989643187e-02
1.762676170049370938e-02
1.762480650109177205e-02
7.622851301689603787e-03
7.620896102287222362e-03
7.618940902885285027e-03
2.616985703483010184e-03
7.615030504080522178e-03
7.613075304678584843e-03
7.611120105276203418e-03
1.260916490587371541e-02
1.260720970647133399e-02
7.605254507069503234e-03
7.603299307667121809e-03
2.601344108264846966e-03
7.599388908862803049e-03
7.597433709460421625e-03
7.595478510058040200e-03
7.593523310656102865e-03
2.591568111253828022e-03
2.589612911851446597e-03
2.587657712449065173e-03
-7.414297486953103089e-03
-1.741625268635527135e-02
-3.141820788575788725e-02
-4.142016308515961143e-02
-4.642211828456188627e-02
-4.642407348396426769e-02
-5.142602868336698663e-02
-5.642798388276881738e-02
-5.642993908217119881e-02
-6.143189428157347365e-02
-7.043384948097530796e-02
-7.543580468037802689e-02
-7.543775987978040831e-02
-7.543971507918234565e-02
-7.544167027858472707e-02
-6.544362547798687757e-02
-5.144558067738946860e-02
-3.144753587679138818e-02
-1.244949107619364170e-02
-2.451446275596236291e-03
2.546598525002163882e-03
2.544643325599782457e-03
7.542688126197294451e-03
1.754073292679514395e-02
3.153877772739299701e-02
4.153682252799040242e-02
4.653486732858835850e-02
4.653291212918642117e-02
3.153095692978391540e-02
1.752900173038129950e-02
2.527046530979681904e-03
-2.474908668423037028e-03
-7.476863867825311871e-03
-1.247881906722714263e-02
-1.748077426662941747e-02
-1.748272946603179889e-02
-1.248468466543428690e-02
-1.748663986483611765e-02
-1.248859506423860566e-02
-1.749055026364088050e-02
-1.749250546304281784e-02
-2.249446066244553677e-02
-1.749641586184758069e-02
-2.498371061250281855e-03
2.499673739348118318e-03
7.497718539945630312e-03
1.249576334054314231e-02
2.149380814114110194e-02
1.749185294173871696e-02
1.248989774233644212e-02
7.487942542934611367e-03
7.485987343532229943e-03
1.248403214412974194e-02
1.748207694472725393e-02
2.148012174532532015e-02
2.647816654592327623e-02
3.147621134652078823e-02
2.647425614711895747e-02
2.147230094771623854e-02
1.747034574831385356e-02
1.246839054891202281e-02
7.466435349509747965e-03
2.464480150107473122e-03
2.462524950705091698e-03
2.460569751303154362e-03
7.458614551900666356e-03
2.456659352498391513e-03
2.454704153096454178e-03
-2.547251046306264755e-03
2.450793754291691329e-03
2.448838554889753993e-03
2.446883355487372569e-03
-2.555071843915346363e-03
-2.557027043317727788e-03
-2.558982242719665123e-03
-7.560937442121939966e-03
-1.256289264152421481e-02
-1.756484784092604556e-02
-1.756680304032842699e-02
-1.756875823973080841e-02
-1.757071343913318984e-02
-2.257266863853546468e-02
-2.657462383793784966e-02
-2.657657903734023108e-02
-2.657853423674216842e-02
-2.258048943614454629e-02
-2.258244463554692771e-02
-1.258439983494863412e-02
-2.586355034351228710e-03
2.411689766246727373e-03
7.409734566844239367e-03
7.407779367442302032e-03
1.740582416803970744e-02
2.140386896863732957e-02
2.640191376923572975e-02
2.639995856983334832e-02
2.639800337043096690e-02
1.739604817102868850e-02
-2.605907028373710688e-03
-1.760786222777577237e-02
-3.160981742717838827e-02
-4.661177262658000586e-02
-5.661372782598261821e-02
-6.561568302538489661e-02
-6.561763822478683394e-02
-6.161959342418921182e-02
-6.162154862359159324e-02
-6.162350382299353058e-02
-6.562545902239591555e-02
-7.562741422179852790e-02
-8.062936942120080275e-02
-7.063132462060250916e-02
-5.163327982000520677e-02
-3.663523501940746385e-02
-1.263719021880937987e-02
2.360854581788363049e-03
1.735889938238566188e-02
2.635694418298362152e-02
3.135498898358157760e-02
3.135303378417919618e-02
3.635107858477670817e-02
3.634912338537477083e-02
3.134716818597249599e-02
3.134521298657011457e-02
3.634325778716807065e-02
4.134130258776558264e-02
3.633934738836330780e-02
3.133739218896103296e-02
2.133543698955886470e-02
7.333481790156692881e-03
-1.766847340924559973e-02
-4.167042860864755838e-02
-7.067238380804985454e-02
-1.056743390074523781e-01
-1.196762942068545499e-01
-1.296782494062567181e-01
-1.396802046056593305e-01
-1.396821598050617119e-01
-1.446841150044635427e-01
-1.396860702038660307e-01
-1.296880254032681812e-01
-1.196899806026703317e-01
-1.056919358020724786e-01
-9.069389100147473570e-02
-7.069584620087665527e-02
-5.169780140027935289e-02
-2.269975659968181958e-02
1.229828820091594110e-02
5.629633300151404285e-02
7.029437780211189590e-02
6.529242260270917697e-02
6.029046740330734622e-02
5.628851220390496124e-02
6.028655700450258337e-02
7.028460180510043287e-02
7.028264660569849553e-02
7.028069140629611411e-02
6.527873620689339518e-02
6.527678100749145784e-02
6.027482580808918300e-02
5.627287060868679802e-02
4.127091540928473634e-02
4.126896020988235492e-02
3.626700501048008007e-02
3.126504981107780523e-02
3.626309461167576131e-02
4.126113941227327331e-02
4.125918421287089188e-02
4.125722901346895455e-02
3.125527381406678629e-02
1.725331861466417038e-02
2.251363415262552792e-03
-7.750591784140059559e-03
-1.775254698354222782e-02
-2.275450218294494675e-02
-2.275645738234688409e-02
-2.275841258174926551e-02
-1.276036778115141601e-02
-7.762322980553459928e-03
-7.764278179955841352e-03
-7.766233379358222777e-03
-7.768188578760160112e-03
-7.770143778162541537e-03
-2.772098977565029543e-03
2.225945823032926540e-03
1.222399062363077604e-02
2.122203542422829159e-02
3.122008022482614109e-02
2.621812502542431034e-02
2.621616982602192891e-02
2.121421462661920998e-02
1.721225942721682500e-02
1.221030422781499425e-02
7.208349028412719406e-03
2.206393829010444563e-03
2.204438629608507227e-03
7.202483430206019221e-03
7.200528230803637797e-03
7.198573031401700462e-03
7.196617831999319037e-03
7.194662632596937613e-03
7.192707433194556188e-03
1.219075223379251227e-02
1.218879703439013085e-02
1.218684183498774942e-02
1.218488663558581209e-02
1.218293143618343066e-02
1.218097623678104924e-02
1.217902103737911190e-02
1.217706583797673048e-02
1.217511063857434905e-02
7.173155439172074210e-03
-2.828799760230094051e-03
-1.783075495963215573e-02
-2.683271015903487822e-02
-3.183466535843670897e-02
-3.683662055783898381e-02
-3.183857575724147182e-02
-3.184053095664340916e-02
-3.684248615604568400e-02
-3.684444135544806542e-02
-3.684639655485044685e-02
-4.184835175425227760e-02
-4.685030695365455244e-02
-4.685226215305693387e-02
-5.185421735245920871e-02
-5.685617255186148356e-02
-5.685812775126386498e-02
-5.186008295066635299e-02
-4.686203815006795281e-02
-3.686399334947054740e-02
-2.686594854887314199e-02
-2.686790374827507932e-02
-2.286985894767745719e-02
-1.287181414707960769e-02
-7.873769346481651610e-03
-2.875724545884139616e-03
-7.877679745286414459e-03
-1.287963494468868930e-02
-2.288159014409085756e-02
-2.688354534349324254e-02
-3.188550054289551738e-02
-3.688745574229734814e-02
-2.688941094169994273e-02
-1.789136614110198309e-02
-1.289332134050402701e-02
-7.895276539906515012e-03
-2.897231739309003018e-03
2.100813061288953065e-03
7.098857861886909149e-03
1.209690266248442114e-02
1.709494746308193314e-02
2.109299226367999935e-02
2.609103706427795544e-02
2.108908186487523650e-02
2.108712666547329917e-02
2.608517146607125525e-02
2.608321626666887383e-02
1.708126106726615134e-02
7.079305867864427171e-03
2.077350668462152328e-03
-2.924604530940566605e-03
-7.926559730342397359e-03
-1.292851492974467220e-02
-1.793047012914694704e-02
-3.693242532854945637e-02
-3.693438052795139370e-02
-4.193633572735366855e-02
-4.193829092675604997e-02
-4.194024612615798731e-02
-4.194220132556036873e-02
-4.194415652496275015e-02
-4.194611172436468749e-02
-3.694806692376717550e-02
-2.695002212316977008e-02
-1.295197732257191703e-02
-2.953932521974067527e-03
1.204411227862367539e-02
1.704215707922118739e-02
2.104020187981925361e-02
2.103824668041687218e-02
2.603629148101482826e-02
2.603433628161289093e-02
2.603238108221050950e-02
1.703042588280778702e-02
7.028470683405618757e-03
-7.973484515996442923e-03
-1.297543971539871777e-02
-1.297739491480109919e-02
-1.297935011420303653e-02
-7.981305313605524532e-03
-7.983260513007905956e-03
-7.985215712409843292e-03
2.012829088188006210e-03
1.701087388878530504e-02
2.600891868938326468e-02
3.600696348998111418e-02
4.100500829057862617e-02
4.100305309117624475e-02
4.100109789177430741e-02
3.599914269237203257e-02
3.099718749296975773e-02
2.099523229356714538e-02
1.199327709416531107e-02
1.991321894763142808e-03
-1.301063330463936296e-02
-1.801258850404119372e-02
-2.301454370344391265e-02
-2.301649890284629407e-02
-1.801845410224789390e-02
-1.802040930165027532e-02
-1.302236450105276333e-02
-1.302431970045514475e-02
-1.302627489985708209e-02
-1.302823009925946351e-02
-1.303018529866184494e-02
-1.303214049806378227e-02
-8.034095697466270281e-03
1.963949103131579221e-03
1.196199390372942872e-02
2.096003870432694427e-02
2.595808350492490035e-02
3.095612830552241235e-02
3.595417310612036843e-02
3.595221790671798701e-02
2.595026270731581874e-02
2.094830750791354390e-02
1.694635230851115892e-02
1.194439710910888408e-02
1.942441909707159908e-03
-3.059513289695559024e-03
-1.306146848909772729e-02
-3.206342368850023661e-02
-4.706537888790185420e-02
-6.206733408730435997e-02
-7.106928928670663836e-02
-7.607124448610891321e-02
-8.607319968551108147e-02
-9.107515488491335631e-02
-9.607711008431563116e-02
-1.010790652837179060e-01
-1.010810204831202874e-01
-9.608297568252277543e-02
-9.608493088192471276e-02
-9.108688608132675668e-02
-8.108884128072935127e-02
-6.609079648013116426e-02
-4.709275167953341779e-02
-3.209470687893611895e-02
-1.809666207833826590e-02
-8.098617277740416398e-03
6.899427522857326522e-03
2.089747232345473549e-02
3.589551712405292250e-02
4.589356192465077200e-02
5.089160672524828399e-02
5.088965152584634666e-02
4.588769632644407181e-02
4.588574112704169039e-02
4.588378592763930897e-02
5.088183072823726505e-02
4.587987552883499021e-02
3.587792032943237786e-02
3.087596513003054710e-02
2.587400993062827226e-02
2.087205473122555333e-02
2.587009953182395350e-02
2.586814433242157207e-02
2.586618913301919065e-02
2.086423393361647172e-02
1.686227873421453083e-02
6.860323534812362567e-03
-3.141631664590249784e-03
-1.314358686399197396e-02
-1.814554206339424880e-02
-1.814749726279663022e-02
-1.814945246219856756e-02
-1.815140766160094898e-02
-1.815336286100333041e-02
-1.815531806040571183e-02
-1.815727325980764917e-02
-2.315922845921036810e-02
-3.216118365861264650e-02
-4.716313885801426409e-02
-4.716509405741664551e-02
-3.716704925681924010e-02
-2.316900445622183113e-02
-3.170959655623750706e-03
1.182708514497399221e-02
2.082512994557150776e-02
2.082317474616957043e-02
1.682121954676718545e-02
2.081926434736480758e-02
3.081730914796310117e-02
3.081535394856071974e-02
2.581339874915844490e-02
2.081144354975572597e-02
1.680948835035378508e-02
1.680753315095140366e-02
1.680557795154902223e-02
1.180362275214719148e-02
1.180166755274481005e-02
6.799712353342535209e-03
1.797757153940704455e-03
-3.204198045462014477e-03
-3.206153244864395901e-03
-8.208108444266670745e-03
-8.210063643668608080e-03
-8.212018843070989504e-03
-1.321397404247326435e-02
-2.321592924187543261e-02
-2.721788444127781759e-02
-2.721983964068019901e-02
-2.722179484008213635e-02
-3.222375003948441119e-02
-3.722570523888668603e-02
-4.222766043828896088e-02
-4.222961563769089821e-02
-5.223157083709351056e-02
-5.723352603649578541e-02
-6.223548123589761616e-02
-6.623743643530000114e-02
-6.623939163470238256e-02
-6.224134683410476043e-02
-5.224330203350691093e-02
-5.224525723290929236e-02
-3.724721243231154943e-02
-1.824916763171335887e-02
6.748877168884170885e-03
1.674692196948157630e-02
2.074496677007964252e-02
3.574301157067738544e-02
4.074105637127489743e-02
4.573910117187285351e-02
4.573714597247091618e-02
4.573519077306853475e-02
4.573323557366615333e-02
5.073128037426410941e-02
4.072932517486149706e-02
3.072736997545932880e-02
2.572541477605749805e-02
2.072345957665477911e-02
2.072150437725239769e-02
2.571954917785035377e-02
2.571759397844841644e-02
2.071563877904569750e-02
1.671368357964331253e-02
1.171172838024148177e-02
1.170977318083910035e-02
1.170781798143671892e-02
1.170586278203478159e-02
1.670390758263229358e-02
1.670195238322991216e-02
1.669999718382753073e-02
1.669804198442559340e-02
1.669608678502321197e-02
1.169413158562093713e-02
6.692176386219106377e-03
6.690221186816724952e-03
6.688265987414343527e-03
1.686310788012068684e-03
1.684355588610131349e-03
1.682400389207749924e-03
6.680445189805261919e-03
6.678489990403324583e-03
1.676534791001049740e-03
-3.325420408401669192e-03
-3.327375607803606528e-03
-3.329330807205987952e-03
-8.331286006608262795e-03
-3.333241206010750801e-03
-3.335196405412688136e-03
6.662848395185161365e-03
6.660893195782779941e-03
1.165893799638073602e-02
1.165698279697835460e-02
6.655027597576079756e-03
1.653072398174249003e-03
-8.348882801228363348e-03
-1.335083800063063819e-02
-1.835279320003291303e-02
-1.835474839943485037e-02
-1.835670359883723179e-02
-1.835865879823961322e-02
-1.836061399764155055e-02
-2.336256919704426949e-02
-2.736452439644665446e-02
-4.236647959584827206e-02
-5.736843479525077782e-02
-6.637038999465305622e-02
-7.137234519405533106e-02
-7.137430039345726840e-02
-6.637625559285975640e-02
-6.637821079226213783e-02
-6.638016599166407516e-02
-7.138212119106635001e-02
-7.138407639046873143e-02
-6.638603158987121944e-02
-5.738798678927325980e-02
-4.738994198867541030e-02
-4.239189718807789831e-02
-4.239385238747983564e-02
-4.739580758688211048e-02
-4.239776278628459849e-02
-2.739971798568685557e-02
-3.401673185089215679e-03
1.159637161550852724e-02
2.059441641610604279e-02
2.059246121670410545e-02
6.590506017301933639e-03
-2.741144918210070003e-02
-6.241340438150233538e-02
-8.141535958090484471e-02
-9.141731478030701297e-02
-9.641926997970928781e-02
-9.642122517911166923e-02
-9.142318037851371315e-02
-9.142513557791609458e-02
-8.642709077731813849e-02
-8.642904597672051992e-02
-8.643100117612290134e-02
-8.143295637552494526e-02
-6.643491157492720234e-02
-4.743686677432945586e-02
-2.743882197373181953e-02
-1.344077717313396647e-02
-3.442732372536561058e-03
-3.444687571938942483e-03
-8.446642771340773237e-03
-1.344859797074304808e-02
-3.450553170145642667e-03
2.554749163045277882e-02
5.054553643105030858e-02
7.954358123164784189e-02
9.954162603224547823e-02
9.953967083284354089e-02
8.953771563344092854e-02
7.953576043403876028e-02
6.953380523463703611e-02
5.553185003523442020e-02
3.552989483583202102e-02
1.152793963643006236e-02
1.525984437027894103e-03
-3.475970762374824830e-03
-3.477925961777206254e-03
-1.347988116117893043e-02
-2.348183636058154278e-02
-3.248379155998382117e-02
-4.748574675938543876e-02
-4.748770195878782019e-02
-3.248965715819052136e-02
-8.491612357592437377e-03
1.650643244300509238e-02
1.650447724360271096e-02
1.150252204420043611e-02
1.650056684479839220e-02
2.549861164539635183e-02
5.049665644599388159e-02
5.949470124659184123e-02
5.949274604718945980e-02
5.049079084778718141e-02
4.548883564838535065e-02
5.548688044898275606e-02
5.548492524958037464e-02
5.048297005017809980e-02
4.548101485077626904e-02
4.047905965137355011e-02
4.047710445197116869e-02
3.547514925256933793e-02
3.047319405316706309e-02
3.047123885376468166e-02
3.046928365436230024e-02
2.546732845496046949e-02
2.046537325555775055e-02
1.646341805615536558e-02
1.146146285675353482e-02
6.459507657351259979e-03
1.457552457948985136e-03
-8.544402741453183125e-03
-1.354635794085545797e-02
-8.548313140257945975e-03
-3.550268339660433980e-03
1.447776460937966192e-03
6.445821261535478186e-03
6.443866062133096761e-03
6.441910862731159426e-03
1.439955663328884583e-03
1.438000463926503159e-03
1.436045264524565823e-03
6.434090065122077817e-03
6.432134865719696393e-03
6.430179666317314968e-03
6.428224466915377633e-03
6.426269267512996208e-03
1.424314068110721365e-03
-3.577641131291553478e-03
1.420403669306402605e-03
1.418448469904021181e-03
6.416493270501977264e-03
6.414538071099595840e-03
1.141258287169710783e-02
1.141062767229472641e-02
1.140867247289278907e-02
1.140671727349040765e-02
6.404762074088132806e-03
1.402806874686302052e-03
-8.599148324716310299e-03
-1.360110352411858514e-02
-8.603058723521073148e-03
1.394986077077220443e-03
6.393030877674732437e-03
6.391075678272351013e-03
1.389120478870520259e-03
1.387165279468138834e-03
-3.614789919934580098e-03
-8.616745119336410852e-03
-8.618700318738792276e-03
-8.620655518141173701e-03
-3.622610717543661707e-03
6.375434083054631884e-03
1.137347888365214388e-02
6.371523684249869035e-03
1.369568484848038281e-03
-8.632386714554574070e-03
-1.363434191395684891e-02
-2.363629711335901717e-02
-3.263825231276129557e-02
-3.764020751216357041e-02
-4.264216271156584526e-02
-4.264411791096778259e-02
-4.264607311037016402e-02
-4.264802830977254544e-02
-3.764998350917458936e-02
-3.265193870857707736e-02
-3.765389390797935221e-02
-4.265584910738118296e-02
-5.265780430678379531e-02
-5.265975950618617674e-02
-5.266171470558855816e-02
-5.266366990499049550e-02
-5.766562510439277034e-02
-6.266758030379504518e-02
-6.666953550319698607e-02
-7.167149070259926091e-02
-7.167344590200164234e-02
-8.667540110140370402e-02
-8.667735630080608544e-02
-7.667931150020868003e-02
-5.268126669961104014e-02
-2.768322189901306629e-02
-8.685177098415319819e-03
6.312867702182423102e-03
6.310912502780485767e-03
-3.691042696622126584e-03
1.307002103975829499e-03
1.130504690457323491e-02
1.130309170517129758e-02
1.130113650576891615e-02
6.299181306366641309e-03
-3.702773893035526953e-03
-3.704729092437908378e-03
1.293315708160047706e-03
6.291360508758003789e-03
6.289405309355622364e-03
2.028745010995303133e-02
3.528549491055077425e-02
5.028353971114896126e-02
5.928158451174647681e-02
6.927962931234432631e-02
7.927767411294217581e-02
8.427571891353968780e-02
7.427376371413751954e-02
5.527180851473545431e-02
3.526985331533305512e-02
3.026789811593078028e-02
1.626594291652816437e-02
6.263987717126440202e-03
-3.737967482276172149e-03
-3.739922681678553573e-03
-3.741877881080490909e-03
-3.743833080482872333e-03
-3.745788279885253758e-03
-8.747743479287084511e-03
-8.749698678689465936e-03
-8.751653878091847361e-03
1.246390922506002141e-03
1.244435723104064806e-03
1.242480523701683381e-03
1.240525324299301957e-03
6.238570124897258040e-03
1.123661492549477003e-02
1.123465972609238861e-02
1.623270452668990060e-02
1.123074932728806985e-02
1.622879412788558184e-02
2.522683892848354148e-02
3.522488372908139098e-02
3.522292852967900956e-02
3.522097333027662813e-02
3.021901813087479738e-02
2.521706293147252254e-02
1.621510773206980005e-02
1.621315253266741863e-02
1.621119733326548129e-02
1.120924213386320645e-02
1.120728693446082502e-02
2.020533173505878466e-02
2.020337653565640323e-02
1.620142133625401826e-02
1.119946613685218750e-02
6.197510937449912660e-03
6.195555738047531236e-03
6.193600538645149811e-03
1.191645339243319057e-03
-3.810309860159399875e-03
-3.812265059561781300e-03
-3.814220258963718635e-03
-3.816175458366100059e-03
-8.818130657768374903e-03
-8.820085857170312238e-03
-8.822041056572693662e-03
-1.882399625597486192e-02
-1.882595145537724335e-02
-2.382790665477951819e-02
-2.382986185418189962e-02
-2.383181705358428104e-02
-2.783377225298622193e-02
-2.383572745238859980e-02
-2.383768265179098123e-02
-1.883963785119302514e-02
-1.384159305059506906e-02
-8.843548249997557065e-03
-3.845503449400045071e-03
-3.847458648801982406e-03
1.150586151795973677e-03
6.148630952393485671e-03
6.146675752991548336e-03
6.144720553589166911e-03
1.142765354186892068e-03
1.140810154784510644e-03
1.138854955382573308e-03
-3.863100244020145624e-03
-8.865055443422420467e-03
-2.386701064282448215e-02
-3.786896584222665396e-02
-5.287092104162915973e-02
-5.787287624103099049e-02
-6.287483144043326533e-02
-6.687678663983565031e-02
-7.687874183923826266e-02
-7.688069703864019999e-02
-7.688265223804258142e-02
-6.688460743744473191e-02
-5.288656263684687886e-02
-4.288851783624902936e-02
-3.289047303565162395e-02
-3.289242823505356128e-02
-3.789438343445583612e-02
-3.789633863385821755e-02
-2.389829383326080858e-02
-3.900249032662728155e-03
6.097795767935121347e-03
6.095840568532739923e-03
6.093885369130802587e-03
6.091930169728421163e-03
1.608997497032582658e-02
1.108801977092355173e-02
6.086064571521720978e-03
6.084109372119339554e-03
1.082154172717064711e-03
-8.919801026685103551e-03
-3.921756226087591557e-03
1.107628857451015136e-02
3.507433337510823534e-02
5.507237817570587168e-02
5.907042297630349381e-02
5.006846777690121542e-02
5.006651257749927808e-02
4.506455737809700324e-02
4.006260217869428431e-02
3.006064697929256013e-02
2.005869177988994778e-02
2.505673658048790386e-02
3.005478138108585995e-02
3.005282618168347852e-02
3.505087098228099052e-02
3.504891578287860909e-02
2.504696058347688492e-02
2.004500538407416599e-02
2.004305018467178456e-02
1.604109498526984368e-02
1.603913978586746225e-02
1.103718458646518741e-02
6.035229387063356654e-03
6.033274187660975230e-03
6.031318988258593805e-03
1.029363788856318962e-03
1.027408589454381627e-03
1.025453390052000202e-03
1.023498190649618778e-03
1.021542991247681442e-03
-3.980412208155037490e-03
-8.982367407557312333e-03
-8.984322606959693758e-03
-2.798627780636175899e-02
-4.298823300576382067e-02
-5.299018820516643302e-02
-5.299214340456837036e-02
-5.299409860397075178e-02
-5.299605380337313321e-02
-5.299800900277507054e-02
-4.799996420217711446e-02
-4.300191940157960246e-02
-4.300387460098198389e-02
-4.800582980038381464e-02
-4.800778499978619607e-02
-5.300974019918891500e-02
-5.301169539859085234e-02
-4.301365059799300283e-02
-3.301560579739559742e-02
-9.017560996797513440e-03
1.998048380380001987e-02
2.997852860439786937e-02
3.997657340499527479e-02
4.997461820559356838e-02
5.897266300619108392e-02
6.397070780678859592e-02
6.396875260738665858e-02
6.896679740798461467e-02
6.396484220858189573e-02
5.496288700918006143e-02
4.496093180977789316e-02
3.495897661037528081e-02
2.995702141097300597e-02
1.995506621157083771e-02
1.095311101216855931e-02
9.511558127663910511e-04
9.492006133644537158e-04
9.472454139620722913e-04
9.452902145596908667e-04
9.433350151573094422e-04
9.413798157553721069e-04
9.394246163529906823e-04
5.937469416950502676e-03
9.355142175486719225e-04
-4.066440981854047010e-03
-9.068396181256321853e-03
-9.070351380658259188e-03
-4.072306580060747194e-03
5.925738220537102308e-03
1.592378302113450772e-02
1.592182782173257038e-02
5.919872622330402123e-03
-4.082082577072210228e-03
-1.408403777647393440e-02
-9.085992975876422406e-03
-9.087948175278803831e-03
-1.908990337468052800e-02
-1.909185857408290943e-02
-2.409381377348562836e-02
-3.809576897288780017e-02
-5.309772417228986185e-02
-7.209967937169192709e-02
-9.710163457109466378e-02
-1.071035897704963880e-01
-1.161055449698986664e-01
-1.211075001693013853e-01
-1.161094553687029851e-01
-1.111114105681054731e-01
-1.111133657675078545e-01
-1.261153209669103603e-01
-1.311172761663121911e-01
-1.161192313657144481e-01
-9.212118656511680825e-02
-6.712314176451883441e-02
-4.812509696392108793e-02
-3.312705216332378910e-02
-2.412900736272627356e-02
-1.913096256212787338e-02
-2.413291776153059232e-02
-3.313487296093287071e-02
-2.813682816033491463e-02
-1.913878335973695499e-02
-4.140738559139656161e-03
1.985730624145842782e-02
4.485535104205640167e-02
6.385339584265370405e-02
7.385144064325155355e-02
7.884948544384950964e-02
7.384753024444723479e-02
5.484557504504472547e-02
4.484361984564300130e-02
6.384166464624030368e-02
8.883970944683783344e-02
9.383775424743623361e-02
8.383579904803362126e-02
6.383384384863122207e-02
4.483188864922915684e-02
2.982993344982709516e-02
1.982797825042448281e-02
1.982602305102210138e-02
1.582406785162016050e-02
1.582211265221777907e-02
1.982015745281540120e-02
1.581820225341346031e-02
1.081624705401118547e-02
8.142918546090172072e-04
8.123366552066357826e-04
8.103814558046984473e-04
8.084262564023170228e-04
8.064710569999355982e-04
8.045158575979982629e-04
-4.197439341804720669e-03
-9.199394541206995513e-03
1.079865025939064083e-02
2.479669505998893797e-02
1.979473986058621904e-02
-4.207215338816183703e-03
-2.420917053821813880e-02
-3.821112573762031062e-02
-4.321308093702258546e-02
-4.821503613642441621e-02
-4.821699133582679764e-02
-5.321894653522951657e-02
-5.822090173463179141e-02
-5.822285693403372875e-02
-5.822481213343611017e-02
-5.822676733283849160e-02
-4.822872253224019801e-02
-1.923067773164266470e-02
5.767367068954865061e-03
2.476541186955305562e-02
3.476345667015046104e-02
4.476150147074831054e-02
4.975954627134582253e-02
5.475759107194377862e-02
4.475563587254161035e-02
4.475368067313922893e-02
3.975172547373695409e-02
3.474977027433467924e-02
3.474781507493229782e-02
3.474585987553036048e-02
3.474390467612797906e-02
3.974194947672549105e-02
3.973999427732310963e-02
3.473803907792127887e-02
2.973608387851900403e-02
2.473412867911672919e-02
1.973217347971445434e-02
1.973021828031207292e-02
2.472826308091002900e-02
2.472630788150764758e-02
2.472435268210571024e-02
2.472239748270332882e-02
2.472044228330094739e-02
1.971848708389867255e-02
1.971653188449629113e-02
1.971457668509390970e-02
1.571262148569196881e-02
1.571066628628958739e-02
5.708711086887419128e-03
-4.293244112515193223e-03
-1.929519931191681081e-02
-2.429715451131952975e-02
-2.429910971072191117e-02
-2.430106491012384851e-02
-1.930302010952589242e-02
-1.930497530892827385e-02
-1.430693050833031776e-02
-1.430888570773269919e-02
-1.431084090713508061e-02
-9.312796106537568619e-03
-9.314751305939505954e-03
-4.316706505341993960e-03
-4.318661704744375385e-03
-4.320616904146312720e-03
-4.322572103548694145e-03
5.675472697049155357e-03
1.567351749764700486e-02
5.671562298244836597e-03
-4.330392901157775754e-03
-4.332348100560157178e-03
-9.334303299961987932e-03
-1.433625849936426278e-02
-1.933821369876653762e-02
-3.834016889816860285e-02
-4.834212409757077111e-02
-5.334407929697349005e-02
-4.834603449637508987e-02
-4.334798969577757788e-02
-4.834994489517985272e-02
-5.835190009458246507e-02
-6.735385529398429938e-02
-6.735581049338668080e-02
-6.735776569278906223e-02
-6.735972089219099956e-02
-6.736167609159338099e-02
-5.836363129099586544e-02
-4.336558649039812252e-02
-2.836754168980037960e-02
-1.436949688920252655e-02
6.285479113952163743e-04
1.562659271199295929e-02
1.062463751259068445e-02
5.622682313188409609e-03
1.062072711378636569e-02
1.561877191438387769e-02
1.061681671498160284e-02
6.148615155794345810e-04
-1.938709368382252052e-02
-3.838904888322502984e-02
-4.339100408262730468e-02
-4.839295928202913544e-02
-3.839491448143173002e-02
-2.439686968083432106e-02
-4.398824880236240631e-03
5.599219920361608871e-03
1.059726472095912087e-02
1.059530952155673944e-02
5.933543221550152680e-04
-4.408600877247703664e-03
-1.441055607664987193e-02
-1.941251127605170268e-02
-9.414466475454297267e-03
5.835783251435522345e-04
1.558162312574129515e-02
2.457966792633925479e-02
3.957771272693655362e-02
5.457575752753429654e-02
6.857380232813259369e-02
7.857184712872999910e-02
6.856989192932783084e-02
5.456793672992565902e-02
3.956598153052315325e-02
2.956402633112098499e-02
2.456207113171871015e-02
2.956011593231666623e-02
3.955816073291407164e-02
4.455620553351202773e-02
4.455425033411009039e-02
3.455229513470747804e-02
2.455033993530530978e-02
2.954838473590326586e-02
2.454642953650099102e-02
1.954447433709827209e-02
1.054251913769599369e-02
5.540563938294162938e-03
-4.461391261108449413e-03
-9.463346460510724256e-03
-9.465301659912661592e-03
-4.467256859315149597e-03
-4.469212058717531022e-03
-9.471167258119361776e-03
-2.447312245752186755e-02
-3.847507765692403936e-02
-4.347703285632631420e-02
-3.847898805572835812e-02
-4.348094325513063296e-02
-4.848289845453290781e-02
-4.848485365393484514e-02
-3.848680885333743973e-02
-1.948876405273969326e-02
-4.490719252141950335e-03
-4.492674451544331760e-03
-9.494629650946606603e-03
-1.949658485034877486e-02
-2.849854004975105326e-02
-5.350049524915334587e-02
-8.250245044855564203e-02
-1.025044056479575971e-01
-1.165063608473597689e-01
-1.315083160467622747e-01
-1.365102712461645496e-01
-1.465122264455667178e-01
-1.605141816449688896e-01
-1.805161368443712888e-01
-1.995180920437733540e-01
-1.945200472431758421e-01
-1.905220024425782199e-01
-1.805239576419799263e-01
-1.655259128413826275e-01
-1.365278680407846501e-01
-1.025298232401872234e-01
-7.253177843958891202e-02
-5.353373363899160964e-02
-2.853568883839407988e-02
1.046235596220412845e-02
5.446040076280178610e-02
8.845844556339921283e-02
1.024564903639975100e-01
1.124545351645949154e-01
1.174525799651928715e-01
1.174506247657904900e-01
1.024486695663884284e-01
1.024467143669860469e-01
1.024447591675836655e-01
9.844280396818172463e-02
8.844084876877911228e-02
7.843889356937694401e-02
6.343693836997488233e-02
4.943498317057271052e-02
4.443302797117043568e-02
4.443107277176805425e-02
4.942911757236601034e-02
4.942716237296362891e-02
4.942520717356124749e-02
4.942325197415931015e-02
4.442129677475703531e-02
3.941934157535431638e-02
1.041738637595202022e-02
-9.584568823449934882e-03
-1.958652402285210314e-02
-3.858847922225461247e-02
-5.359043442165667415e-02
-5.859238962105894899e-02
-5.359434482046143700e-02
-5.359630001986337433e-02
-5.859825521926564917e-02
-5.860021041866803060e-02
-6.360216561807030544e-02
-6.360412081747224278e-02
-5.860607601687473078e-02
-6.360803121627700563e-02
-4.860998641567881862e-02
-1.961194161508128531e-02
2.438610318551637235e-02
5.838414798611424317e-02
9.338219278671200385e-02
1.173802375873096437e-01
1.273782823879070492e-01
1.173763271885053250e-01
9.337437198910292224e-02
7.337241678970052305e-02
5.837046159029846137e-02
4.936850639089618298e-02
4.436655119149390814e-02
3.936459599209163329e-02
2.936264079268946503e-02
2.936068559328708361e-02
1.935873039388447125e-02
1.935677519448253392e-02
1.935481999508015249e-02
1.535286479567776752e-02
1.535090959627583018e-02
1.934895439687345231e-02
1.934699919747107089e-02
1.534504399806868591e-02
1.034308879866685515e-02
5.341133599264580312e-03
3.391783998623054686e-04
-1.466277679953975621e-02
-1.966473199894203105e-02
-2.466668719834474999e-02
-1.966864239774634981e-02
-1.467059759714883782e-02
-4.672552796551432408e-03
3.254920040465236752e-04
3.235368046445863399e-04
-4.678418394758132592e-03
-9.680373594160407436e-03
-1.468232879356223819e-02
-1.968428399296451303e-02
-2.868623919236723552e-02
-3.368819439176906627e-02
-3.369014959117144770e-02
-3.369210479057382912e-02
-3.369405998997621055e-02
-3.869601518937804130e-02
-3.369797038878052930e-02
-3.369992558818291073e-02
-2.870188078758495465e-02
-2.870383598698733607e-02
-2.470579118638971394e-02
-2.470774638579165128e-02
-1.470970158519380178e-02
-4.711656784596396363e-03
-4.713611983998777788e-03
-1.971556718340039538e-02
-2.871752238280311786e-02
-3.371947758220539271e-02
-3.372143278160733004e-02
-2.872338798100981805e-02
-2.472534318041219592e-02
-1.472729837981434642e-02
-1.472925357921628375e-02
-9.731208778618771760e-03
2.668360219790777421e-04
1.026488082257692724e-02
1.926292562317444279e-02
2.926097042377229229e-02
2.425901522437046154e-02
1.925706002496774261e-02
1.925510482556536118e-02
2.925314962616321068e-02
3.425119442676116677e-02
3.424923922735878534e-02
3.424728402795640392e-02
3.424532882855446658e-02
3.424337362915208516e-02
2.924141842974981031e-02
1.923946323034764205e-02
1.023750803094536366e-02
5.235552831543088814e-03
2.335976321408139711e-04
-4.768357567261460872e-03
-1.477031276666362913e-02
-3.877226796606603187e-02
-5.877422316546798697e-02
-7.277617836487015879e-02
-8.277813356427277114e-02
-1.117800887636746232e-01
-1.467820439630771467e-01
-1.757839991624794429e-01
-1.947859543618819522e-01
-2.047879095612836764e-01
-2.147898647606862887e-01
-2.197918199600885636e-01
-2.247937751594903943e-01
-2.197957303588928824e-01
-2.197976855582952638e-01
-2.097996407576974143e-01
-1.808015959570994369e-01
-1.508035511565020137e-01
-1.078055063559042459e-01
-6.380746155530614416e-02
-1.980941675470848651e-02
-9.811371954111081095e-03
-4.813327153513125012e-03
1.918471764708451488e-02
7.818276244768229688e-02
1.371808072482800789e-01
1.561788520488778254e-01
1.511768968494755505e-01
1.411749416500733822e-01
1.321729864506711039e-01
1.271710312512688290e-01
1.121690760518663232e-01
9.816712085246459552e-02
8.816516565306198316e-02
7.816321045365981490e-02
7.816125525425743348e-02
8.315930005485538956e-02
8.815734485545290156e-02
8.315538965605062671e-02
7.315343445664890254e-02
6.315147925724629019e-02
5.414952405784401179e-02
4.414756885844228762e-02
3.414561365903967527e-02
3.414365845963729384e-02
2.914170326023501900e-02
3.413974806083297509e-02
3.413779286143059366e-02
3.413583766202821224e-02
3.413388246262627490e-02
2.913192726322400006e-02
2.912997206382161863e-02
2.412801686441934379e-02
2.412606166501740645e-02
2.412410646561502503e-02
1.912215126621230610e-02
1.912019606681036876e-02
1.911824086740798734e-02
1.511628566800560236e-02
1.011433046860377161e-02
1.011237526920139018e-02
1.011042006979900876e-02
5.108464870396733915e-03
-4.893490329005434347e-03
-1.489544552840760261e-02
-2.489740072781021496e-02
-2.489935592721215230e-02
-1.990131112661419621e-02
-1.990326632601657764e-02
-1.490522152541862155e-02
-1.990717672482089640e-02
-2.490913192422361533e-02
-2.891108712362600031e-02
-4.391304232302761790e-02
-5.391499752243023025e-02
-5.891695272183250509e-02
-5.891890792123444243e-02
-5.892086312063682385e-02
-4.892281832003897435e-02
-3.892477351944112485e-02
-4.892672871884329311e-02
-7.792868391824603336e-02
-9.793063911764843255e-02
-1.119325943170501603e-01
-1.079345495164525381e-01
-1.079365047158549196e-01
-1.079384599152568569e-01
-1.169404151146591353e-01
-1.219423703140618542e-01
-1.119443255134640047e-01
-1.029462807128660451e-01
-1.119482359122683235e-01
-1.219501911116709358e-01
-1.269521463110727666e-01
-1.219541015104752546e-01
-1.079560567098774015e-01
-7.795801190927953428e-02
-5.895996710868178781e-02
-3.896192230808415147e-02
-1.996387750748640499e-02
-4.965832706888662074e-03
3.221209370929400961e-05
5.030256894306806004e-03
1.002830169490476209e-02
1.902634649550227763e-02
1.502439129609989266e-02
1.502243609669795532e-02
2.902048089729580838e-02
3.901852569789321379e-02
4.901657049849106329e-02
6.801461529908925385e-02
8.301266009968655268e-02
8.801070490028406468e-02
9.800874970088235827e-02
1.120067945014797672e-01
1.220048393020776167e-01
1.170028841026757860e-01
1.020009289032732802e-01
7.799897370387087747e-02
5.799701850446847828e-02
4.399506330506675056e-02
2.899310810566424479e-02
1.899115290626163244e-02
1.898919770685969510e-02
1.498724250745731013e-02
9.985287308055035282e-03
4.983332108652760439e-03
-1.862309074907031459e-05
-5.020578290151789247e-03
-2.253348955383316365e-05
-5.024488688956108007e-03
-2.002644388835816969e-02
-4.402839908776057243e-02
-6.403035428716252753e-02
-5.903230948656501553e-02
-5.903426468596739696e-02
-5.903621988536977838e-02
-5.903817508477171572e-02
-5.904013028417409714e-02
-5.904208548357647857e-02
-4.904404068297818498e-02
-3.904599588238077956e-02
-3.404795108178326757e-02
-2.504990628118530793e-02
-1.005186148058756501e-02
9.946183320010071327e-03
9.944228120607689902e-03
1.894227292120564954e-02
3.394031772180339246e-02
3.893836252240090445e-02
3.393640732299907370e-02
4.934452123596777540e-03
-2.006750307580551507e-02
-3.906945827520758030e-02
-6.407141347460987291e-02
-7.307336867401215130e-02
-7.307532387341453273e-02
-7.307727907281647006e-02
-7.307923427221885149e-02
-6.808118947162133949e-02
-5.908314467102337986e-02
-4.908509987042553036e-02
-3.408705506982823152e-02
-2.008901026922993438e-02
-1.009096546863252897e-02
-5.092920668035016973e-03
4.905124132562832528e-03
2.390316893316102309e-02
4.890121373375855285e-02
6.789925853435629932e-02
8.289730333495404224e-02
1.018953481355517887e-01
1.068933929361493007e-01
1.018914377367470259e-01
8.788948253734485405e-02
7.288752733794279237e-02
6.288557213854018002e-02
4.888361693913845230e-02
3.888166173973583994e-02
3.387970654033356510e-02
3.387775134093162777e-02
3.387579614152924634e-02
3.387384094212686492e-02
3.387188574272448349e-02
2.386993054332275932e-02
9.867975343920143416e-03
-1.013397985548225577e-02
-2.013593505488397994e-02
-2.513789025428669888e-02
-2.513984545368908030e-02
-3.414180065309091461e-02
-4.414375585249308287e-02
-5.414571105189569522e-02
-5.914766625129797006e-02
-5.414962145070001398e-02
-4.915157665010205790e-02
-4.415353184950454590e-02
-3.915548704890658982e-02
-2.515744224830918085e-02
-1.015939744771143793e-02
-1.016135264711337527e-02
-1.016330784651575669e-02
-1.652630459179071920e-04
4.832781754679604802e-03
4.830826555277667467e-03
4.828871355875286042e-03
4.826916156472904618e-03
9.824960957070860701e-03
1.482300575766837269e-02
1.482105055826599127e-02
9.819095358863716427e-03
9.817140159461779092e-03
1.481518496005929109e-02
1.481322976065690966e-02
9.811274561255078908e-03
-1.906806381470893541e-04
-1.519263583754959512e-02
-2.919459103695176694e-02
-3.919654623635393520e-02
-4.419850143575621004e-02
-4.920045663515848489e-02
-5.420241183456075973e-02
-6.420436703396292799e-02
-6.820632223336531297e-02
-7.820827743276748123e-02
-8.321023263216975607e-02
-7.821218783157224408e-02
-6.821414303097395049e-02
-4.921609823037620401e-02
-2.521805342977900821e-02
-2.200086291810343653e-04
2.877803617141694303e-02
6.277608097201436976e-02
8.277412577261200610e-02
9.277217057321029969e-02
9.277021537380791827e-02
7.776826017440541250e-02
6.276630497500335082e-02
4.876434977560117900e-02
3.376239457619867324e-02
2.876043937679639839e-02
1.875848417739423013e-02
1.475652897799184515e-02
9.754573778589570310e-03
-1.024738142081238479e-02
-3.924933662021468095e-02
-7.825129181961720803e-02
-1.032532470190195006e-01
-1.032552022184214380e-01
-9.825715741782392598e-02
-8.825911261722607648e-02
-7.826106781662822698e-02
-7.326302301603027090e-02
-7.326497821543265232e-02
-6.826693341483469624e-02
-7.326888861423697108e-02
-7.827084381363969001e-02
-7.327279901304173393e-02
-6.427475421244377429e-02
-3.427670941184635112e-02
9.721335388751306539e-03
3.871938018934928394e-02
5.371742498994702686e-02
5.771546979054464899e-02
5.771351459114271165e-02
5.371155939174032667e-02
4.370960419233815841e-02
2.870764899293565264e-02
2.370569379353382189e-02
2.370373859413144046e-02
2.370178339472905904e-02
1.869982819532678420e-02
9.697872995924505801e-03
-3.040822034776624605e-04
-1.530603740287972414e-02
-1.530799260228210557e-02
-1.530994780168448699e-02
-1.531190300108686841e-02
-1.531385820048880575e-02
-2.031581339989108059e-02
-2.031776859929346202e-02
-1.531972379869550593e-02
-3.216789980977630137e-04
9.676365802499642399e-03
2.367441060309749545e-02
3.867245540369523837e-02
4.367050020429319446e-02
4.366854500489081303e-02
3.366658980548864477e-02
2.366463460608647651e-02
9.662679406683860606e-03
4.660724207282029852e-03
-3.412309921202449914e-04
-1.034318619152285734e-02
-2.034514139092502560e-02
-2.034709659032696294e-02
-2.934905178972968542e-02
-3.435100698913196027e-02
-3.435296218853389760e-02
-3.935491738793617245e-02
-4.435687258733844729e-02
-5.935882778674050897e-02
-6.436078298614278381e-02
-5.936273818554527182e-02
-5.436469338494775982e-02
-3.936664858434957281e-02
-2.536860378375216385e-02
-1.537055898315431435e-02
-1.537251418255625168e-02
-1.537446938195863311e-02
-1.037642458136112111e-02
-5.378379780763165030e-03
4.619665019834684472e-03
-3.822901795675903713e-04
-1.038424537897020272e-02
-2.038620057837192689e-02
-2.038815577777430832e-02
-1.539011097717679633e-02
-1.539206617657873366e-02
-2.939402137598134956e-02
-3.939597657538351783e-02
-4.939793177478568609e-02
-4.939988697418762342e-02
-5.940184217359023577e-02
-6.840379737299251417e-02
-8.840575257239446927e-02
-1.084077077717968685e-01
-1.174096629711991469e-01
-1.174116181706010842e-01
-1.174135733700034656e-01
-1.174155285694058470e-01
-1.084174837688083315e-01
-9.341943896821014448e-02
-7.342139416761250814e-02
-3.442334936701518799e-02
-4.253045664168730866e-04
3.857274023418044706e-02
6.757078503477842446e-02
6.756882983537648713e-02
5.756687463597387477e-02
6.256491943657138677e-02
6.256296423716900534e-02
6.256100903776706801e-02
5.755905383836479317e-02
5.755709863896241174e-02
5.755514343956047441e-02
5.355318824015808943e-02
4.355123304075592117e-02
2.354927784135396607e-02
9.547322641951350164e-03
-5.454632557451155606e-03
-1.045658775685343045e-02
-2.045854295625515462e-02
-2.946049815565787711e-02
-2.946245335506025853e-02
-2.946440855446219587e-02
-3.446636375386447071e-02
-3.946831895326674555e-02
-4.447027415266902040e-02
-4.947222935207085115e-02
-3.447418455147355232e-02
-5.476139750876019008e-03
2.352190504972240248e-02
3.351994985031980789e-02
3.851799465091731989e-02
4.351603945151572006e-02
4.351408425211333864e-02
3.351212905271072628e-02
3.351017385330834486e-02
3.350821865390640752e-02
4.350626345450425703e-02
5.350430825510166244e-02
5.350235305569972510e-02
5.350039785629734368e-02
5.349844265689496225e-02
5.349648745749302492e-02
5.349453225809064350e-02
4.849257705868836865e-02
3.849062185928575630e-02
3.348866665988392555e-02
2.348671146048175729e-02
1.448475626107903480e-02
1.448280106167709747e-02
9.480845862274822622e-03
4.478890662872547779e-03
-5.523064536529620483e-03
-2.552501973593201967e-02
-3.952697493533419149e-02
-4.952893013473635975e-02
-5.453088533413863459e-02
-5.953284053354090943e-02
-6.453479573294318428e-02
-6.453675093234512161e-02
-6.453870613174750304e-02
-6.454066133114988446e-02
-6.454261653055226589e-02
-6.454457172995420322e-02
-6.454652692935658465e-02
-6.454848212875896607e-02
-5.955043732816100999e-02
-5.955239252756339141e-02
-4.955434772696554191e-02
-2.955630292636790557e-02
-1.055825812577015910e-02
-5.602133251723095952e-04
1.843783147542499279e-02
3.843587627602307322e-02
4.343392107662102930e-02
4.843196587721854129e-02
4.843001067781660396e-02
4.842805547841422253e-02
3.842610027901161018e-02
2.842414507960988601e-02
2.342218988020761117e-02
1.442023468080488868e-02
1.441827948140250726e-02
1.841632428200057348e-02
2.341436908259852956e-02
1.441241388319580707e-02
-5.895413162058105172e-04
-1.559149651560831629e-02
-2.959345171501093219e-02
-3.459540691441276294e-02
-3.459736211381514437e-02
-3.459931731321752579e-02
-2.960127251262001380e-02
-2.560322771202194758e-02
-2.560518291142432901e-02
-2.960713811082671398e-02
-3.960909331022843816e-02
-5.461104850963094393e-02
-4.961300370903298784e-02
-3.961495890843558243e-02
-2.561691410783772938e-02
-5.618869307240093036e-03
1.837917549335754686e-02
4.337722029395596479e-02
5.337526509455337020e-02
5.737330989515099233e-02
4.337135469574926461e-02
2.336939949634686542e-02
-6.325557030555373217e-04
-1.063451090245814967e-02
-1.563646610185998043e-02
-1.563842130126236185e-02
-2.564037650066497420e-02
-4.964233170006648876e-02
-5.464428689946920770e-02
-6.464624209887137596e-02
-8.864819729827333461e-02
-1.126501524976757374e-01
-1.326521076970781365e-01
-1.426540628964807489e-01
-1.376560180958823487e-01
-1.126579732952848190e-01
-9.365992849468707249e-02
-8.866188369408911640e-02
-7.366383889349137348e-02
-2.566579409289415636e-02
1.433225070770394183e-02
2.333029550830190146e-02
3.332834030889930688e-02
4.832638510949704980e-02
6.732442991009524036e-02
7.232247471069275235e-02
8.232051951129015777e-02
9.731856431188834478e-02
1.013166091124859669e-01
8.731465391308335100e-02
7.231269871368173341e-02
5.731074351427922764e-02
5.330878831487684266e-02
4.830683311547456782e-02
3.830487791607239956e-02
3.330292271667012471e-02
2.830096751726784987e-02
2.829901231786591254e-02
3.329705711846342453e-02
3.329510191906104311e-02
3.829314671965855510e-02
3.829119152025661776e-02
3.328923632085434292e-02
3.328728112145196150e-02
2.828532592205013074e-02
2.328337072264785590e-02
1.828141552324513697e-02
1.427946032384319608e-02
1.427750512444081465e-02
9.275549925038539811e-03
9.273594725636158387e-03
9.271639526234221051e-03
4.269684326831946208e-03
4.267729127429564784e-03
4.265773928027627449e-03
4.263818728625246024e-03
-5.738136470777366327e-03
-2.574009167017932143e-02
-5.474204686958161759e-02
-8.374400206898391374e-02
-1.127459572683862099e-01
-1.277479124677882716e-01
-1.377498676671904398e-01
-1.427518228665931588e-01
-1.477537780659949895e-01
-1.567557332653972679e-01
-1.717576884647997737e-01
-1.767596436642016045e-01
-1.667615988636041990e-01
-1.477635540630064526e-01
-1.327655092624087096e-01
-1.037674644618107322e-01
-6.876941966121297156e-02
-2.577137486061564786e-02
9.226669939982556912e-03
3.822471474058009022e-02
6.722275954117806762e-02
8.722080434177525987e-02
8.721884914237332254e-02
9.221689394297127862e-02
8.721493874356855969e-02
8.221298354416672893e-02
9.221102834476457843e-02
1.012090731453620940e-01
9.720711794596015309e-02
8.720516274655754074e-02
7.220320754715547906e-02
5.720125234775297329e-02
4.319929714835124557e-02
3.319734194894863322e-02
2.319538674954646496e-02
1.419343155014418656e-02
1.419147635074180513e-02
2.318952115133976477e-02
2.818756595193772085e-02
2.818561075253533943e-02
1.818365555313272708e-02
1.418170035373034210e-02
9.179745154328511347e-03
9.177789954926129923e-03
9.175834755523748498e-03
1.417387955612170458e-02
1.417192435671932316e-02
9.169969157317048314e-03
1.416801395791500440e-02
1.816605875851262653e-02
1.416410355911024155e-02
1.416214835970786012e-02
9.160193160306029370e-03
4.158237960903754526e-03
-8.437172384985203166e-04
4.154327562099435767e-03
9.152372362696947761e-03
1.815041716329446331e-02
2.314846196389241939e-02
2.314650676449048206e-02
1.414455156508775957e-02
9.142596365685484727e-03
4.140641166283653973e-03
-8.613140331186208698e-04
-5.863269232521339802e-03
-5.865224431923277137e-03
-1.086717963132555198e-02
-2.086913483072772024e-02
-3.987109003013022956e-02
-4.487304522953206032e-02
-4.487500042893444174e-02
-3.487695562833703633e-02
-2.587891082773907669e-02
-2.088086602714112061e-02
-1.088282122654371520e-02
-8.847764259454216074e-04
-5.886731625348140540e-03
-2.088868682475020222e-02
-2.989064202415292471e-02
-2.989259722355486204e-02
-2.989455242295724346e-02
-2.589650762235962134e-02
-1.089846282176143433e-02
-9.004180211635848252e-04
4.097626779433927169e-03
4.095671580031989834e-03
1.409371638062939525e-02
1.409176118122701382e-02
1.408980598182463240e-02
9.087850782422801643e-03
4.085895583020526800e-03
9.083940383618038794e-03
1.408198518421599488e-02
1.408002998481361345e-02
1.407807478541123203e-02
1.807611958600885416e-02
1.807416438660691682e-02
4.072209187204745007e-03
-9.297460121975298364e-04
-5.931701211599804680e-03
-9.336564110018485962e-04
-9.356116104042300208e-04
4.062433190193726062e-03
-9.395220092085487806e-04
-1.094147720861116113e-02
-2.094343240801332939e-02
-2.994538760741560779e-02
-4.994734280681756289e-02
-7.394929800621996563e-02
-9.895125320562225824e-02
-1.129532084050244300e-01
-1.089551636044268079e-01
-1.039571188038288518e-01
-1.089590740032311267e-01
-9.396102920263338376e-02
-4.496298440203583269e-02
-1.096493960143796187e-02
-5.966894800840449875e-03
-5.968850000242831300e-03
-5.970805199644768635e-03
-1.097276039904704348e-02
-1.597471559844931832e-02
-1.097667079785136224e-02
4.021374002746380683e-03
2.301941880334412716e-02
2.801746360394163915e-02
2.801550840453970181e-02
2.801355320513732039e-02
2.301159800573504555e-02
1.800964280633277070e-02
1.800768760693038928e-02
1.800573240752800785e-02
1.400377720812562288e-02
2.300182200872402660e-02
2.799986680932153860e-02
3.799791160991894401e-02
2.799595641051721984e-02
2.299400121111494499e-02
2.299204601171256357e-02
2.299009081231062623e-02
2.798813561290813823e-02
2.298618041350586338e-02
1.798422521410314445e-02
1.398227001470120356e-02
8.980314815298928721e-03
8.978359615896547297e-03
1.397640441649450338e-02
1.797444921709212551e-02
2.297249401769008159e-02
2.297053881828814426e-02
2.796858361888565625e-02
2.796662841948327483e-02
2.796467322008089340e-02
2.796271802067895607e-02
2.296076282127668122e-02
2.295880762187429980e-02
1.795685242247202495e-02
2.295489722306998104e-02
1.395294202366725855e-02
-1.049013175734359038e-03
-1.605096837513686481e-02
-2.105292357453913965e-02
-2.605487877394185858e-02
-1.605683397334356499e-02
-1.105878917274605300e-02
-1.106074437214843442e-02
-2.106269957155015859e-02
-3.006465477095288108e-02
-3.506660997035515592e-02
-4.006856516975743077e-02
-5.007052036915915494e-02
-5.007247556856153636e-02
-4.007443076796413095e-02
-3.007638596736628145e-02
-2.607834116676865932e-02
-1.608029636617080982e-02
-1.108225156557285374e-02
-1.108420676497523516e-02
-1.608616196437751000e-02
-1.608811716377989143e-02
-2.109007236318172218e-02
-3.009202756258444467e-02
-3.009398276198682609e-02
-3.009593796138876343e-02
-2.109789316079080379e-02
-6.099848360193504959e-03
8.898196440404682050e-03
3.896241241002407207e-03
-1.110571395840009856e-02
-1.110766915780247999e-02
-1.610962435720431074e-02
-2.111157955660658558e-02
-3.511353475600920149e-02
-4.511548995541092566e-02
-5.511744515481353801e-02
-6.511940035421570627e-02
-7.412135555361754058e-02
-8.412331075302015293e-02
-7.912526595242264094e-02
-6.512722115182478788e-02
-5.012917635122660087e-02
-1.113113155062928072e-02
1.786691324996825259e-02
2.286495805056665276e-02
2.786300285116416475e-02
5.286104765176169451e-02
7.185909245235944098e-02
7.685713725295739707e-02
9.685518205355503341e-02
1.058532268541525490e-01
9.685127165475071465e-02
7.184931645534842204e-02
5.684736125594591627e-02
4.784540605654408196e-02
4.784345085714170054e-02
4.784149565773931911e-02
4.283954045833704427e-02
3.783758525893476943e-02
3.283563005953249458e-02
2.783367486013021974e-02
2.783171966072828241e-02
2.282976446132600756e-02
1.782780926192328863e-02
1.782585406252135130e-02
1.382389886311896632e-02
8.821943663716691475e-03
3.819988464314416632e-03
-1.181966735087414122e-03
-6.183921934490133054e-03
-1.185877133892176971e-03
-1.187832333294114306e-03
-1.189787532696495731e-03
-1.191742732098877156e-03
-1.193697931500814491e-03
-1.119565313090342684e-02
-2.119760833030559510e-02
-2.619956352970831404e-02
-2.120151872910991386e-02
-6.203473928512615032e-03
8.794570872085127888e-03
2.279261567268342503e-02
3.779066047328072386e-02
3.278870527387844902e-02
2.278675007447628076e-02
3.784794875074215526e-03
-6.217160324328396825e-03
-2.621911552373079601e-02
-3.522107072313263032e-02
-3.022302592253511833e-02
-1.622498112193726527e-02
8.773063678660708575e-03
2.277110847925856163e-02
1.776915327985584270e-02
3.767198080453670883e-03
-6.234757118948497379e-03
-1.123671231835077222e-02
-1.123866751775315365e-02
-1.624062271715498440e-02
-1.624257791655736582e-02
-1.244533115959622904e-03
1.375351168463812002e-02
2.275155648523607965e-02
2.774960128583359165e-02
2.774764608643121022e-02
2.774569088702927289e-02
2.774373568762689146e-02
2.274178048822461662e-02
1.773982528882234178e-02
1.773787008941996035e-02
1.373591489001757537e-02
8.733959690615744620e-03
3.732004491213469777e-03
3.730049291811088352e-03
8.728094092408600346e-03
1.372613889300655643e-02
1.372418369360417501e-02
3.722228494202006743e-03
-1.279726705199824011e-03
-6.281681904602542943e-03
-6.283637104004924367e-03
-1.628559230340709263e-02
-2.628754750280926089e-02
-3.528950270221153929e-02
-4.029145790161381413e-02
-3.529341310101585805e-02
-3.029536830041834605e-02
-3.529732349982062090e-02
-5.029927869922223849e-02
-7.430123389862464123e-02
-9.930318909802737792e-02
-1.233051442974297807e-01
-1.283070994968316114e-01
-1.093090546962338649e-01
-9.431100989563612202e-02
-7.431296509503804160e-02
-5.531492029444073921e-02
-4.531687549384288971e-02
-3.031883069324514679e-02
-2.632078589264752466e-02
-2.132274109204956858e-02
-2.132469629145195000e-02
-1.326651490853869575e-03
1.767139330974343281e-02
3.266943811034117573e-02
4.266748291093946932e-02
4.766552771153698131e-02
5.266357251213449331e-02
6.666161731273279045e-02
7.165966211333030245e-02
8.165770691392770786e-02
8.165575171452532643e-02
7.665379651512349568e-02
6.665184131572132742e-02
5.264988611631871152e-02
3.764793091691664984e-02
2.764597571751448157e-02
2.264402051811220673e-02
2.264206531871026939e-02
2.264011011930788797e-02
2.263815491990550655e-02
2.763619972050301854e-02
2.763424452110108120e-02
2.763228932169869978e-02
1.763033412229608743e-02
1.362837892289414654e-02
8.626423723491871698e-03
8.624468524089490273e-03
8.622513324687108849e-03
1.362055812528506493e-02
1.361860292588268351e-02
1.361664772648030208e-02
8.614692527078471329e-03
3.612737327676196486e-03
3.610782128273815061e-03
3.608826928871877726e-03
8.606871729469389720e-03
8.604916530067008296e-03
8.602961330664626871e-03
3.601006131262796117e-03
-1.400949068139478726e-03
-1.402904267541860150e-03
3.595140533056095933e-03
-6.406814666346516418e-03
-2.640876986574891561e-02
-3.041072506515085649e-02
-2.641268026455323437e-02
-2.641463546395561579e-02
-2.641659066335799722e-02
-3.041854586275993810e-02
-2.642050106216231598e-02
-2.142245626156435989e-02
-1.424411460966279463e-03
1.357363333963101937e-02
1.357167814022863794e-02
1.356972294082670061e-02
1.356776774142431918e-02
8.565812542022044340e-03
1.356385734261955633e-02
2.256190214321796006e-02
2.755994694381547205e-02
3.755799174441287747e-02
3.755603654501094013e-02
3.755408134560855871e-02
2.755212614620639044e-02
1.755017094680377809e-02
1.754821574740184076e-02
1.754626054799945933e-02
1.754430534859707791e-02
2.254235014919547808e-02
2.754039494979299008e-02
2.253843975039071523e-02
1.753648455098844039e-02
1.353452935158605541e-02
3.532574152183887151e-03
-1.469381047218387693e-03
-1.647133624662044937e-02
-2.147329144602272422e-02
-3.047524664542544670e-02
-3.547720184482727745e-02
-4.047915704422955230e-02
-5.048111224363172056e-02
-5.548306744303399540e-02
-6.548502264243616366e-02
-6.948697784183854864e-02
-6.948893304124093007e-02
-6.049088824064297043e-02
-5.049284344004512093e-02
-4.049479863944771552e-02
-3.049675383884986601e-02
-2.149870903825190638e-02
-6.500664237654607547e-03
3.497380562943686044e-03
3.495425363541304620e-03
1.349347016413871003e-02
2.249151496473666967e-02
2.748955976533462575e-02
2.748760456593224433e-02
1.748564936652963198e-02
3.483694167127904251e-03
-1.518261032274370592e-03
-1.520216231676752017e-03
-6.522171431079470949e-03
-1.524126630481070777e-03
3.473918170116441217e-03
8.471962970713953212e-03
1.347000777131190929e-02
2.746805257190976235e-02
4.746609737250739869e-02
5.246414217310535477e-02
4.746218697370307993e-02
4.246023177430080509e-02
2.745827657489829932e-02
2.245632137549646856e-02
2.745436617609398056e-02
3.745241097669138597e-02
3.745045577728944863e-02
2.744850057788728037e-02
2.244654537848500553e-02
1.344459017908272713e-02
8.442634979680452290e-03
8.440679780278070865e-03
1.743872458087558641e-02
2.743676938147388000e-02
2.243481418207160516e-02
1.343285898266888267e-02
8.430903783267051921e-03
8.428948583864670496e-03
3.426993384462395653e-03
3.425038185060458318e-03
-6.576917014342154033e-03
-1.157887221374442888e-02
-1.158082741314681030e-02
-1.658278261254864105e-02
-2.158473781195091590e-02
-2.158669301135329732e-02
-2.158864821075523466e-02
-1.659060341015772266e-02
-1.659255860956010409e-02
-1.659451380896248551e-02
-1.659646900836442285e-02
-2.659842420776703520e-02
-4.060037940716920701e-02
-5.060233460657093119e-02
-3.560428980597363235e-02
-1.660624500537588588e-02
3.391799795222194547e-03
1.738984459581960351e-02
3.238788939641734643e-02
3.738593419701485843e-02
3.238397899761302767e-02
3.238202379821064625e-02
3.738006859880815824e-02
3.737811339940622091e-02
3.737615820000383948e-02
3.737420300060145806e-02
4.237224780119985823e-02
3.737029260179713930e-02
2.736833740239497104e-02
1.736638220299235869e-02
1.736442700359042135e-02
1.336247180418803637e-02
8.360516604785761530e-03
-1.641438594615962643e-03
-1.164339379401857499e-02
-1.664534899342084984e-02
-1.664730419282278717e-02
-1.164925939222527518e-02
3.348785408372467742e-03
1.334683020896987315e-02
1.734487500956793937e-02
1.734291981016555795e-02
1.734096461076317652e-02
1.733900941136123919e-02
1.333705421195885421e-02
3.335099012556685949e-03
-6.666856186845926402e-03
-2.666881138624788150e-02
-4.067076658565005332e-02
-5.567272178505255908e-02
-6.967467698445428681e-02
-8.967663218385668600e-02
-1.046785873832591918e-01
-1.136805425826610261e-01
-1.186824977820633009e-01
-1.136844529814657889e-01
-1.046864081808682734e-01
-9.468836338026997979e-02
-8.469031857967257437e-02
-6.969227377907483145e-02
-5.069422897847664089e-02
-2.669618417787944509e-02
-6.698139377281808748e-03
1.329990542331627168e-02
4.729795022391414250e-02
7.629599502451167581e-02
9.629403982510931215e-02
1.002920846257073784e-01
1.052901294263048904e-01
1.052881742269025089e-01
9.628621902750067463e-02
8.628426382809806228e-02
7.628230862869589401e-02
6.628035342929416984e-02
6.127839822989145091e-02
6.127644303048906949e-02
6.127448783108668806e-02
6.127253263168475073e-02
5.227057743228247233e-02
4.226862223288030407e-02
3.726666703347802923e-02
3.226471183407575438e-02
2.726275663467347954e-02
2.226080143527120470e-02
1.325884623586892630e-02
3.256891036466758038e-03
-6.745064162935854313e-03
-1.674701936233757849e-02
-2.674897456174019084e-02
-3.075092976114257581e-02
-3.575288496054440657e-02
-4.075484015994668141e-02
-4.575679535934895625e-02
-3.575875055875155084e-02
-3.076070575815359476e-02
-2.176266095755563512e-02
-1.176461615695822971e-02
-1.766571356359936118e-03
8.231473444237469295e-03
1.722951824483498484e-02
8.227563045433150535e-03
-1.774392153969017727e-03
-1.177634735337163008e-02
-6.778302552774118084e-03
8.219742247824068926e-03
1.721778704842158447e-02
1.721583184901920305e-02
1.321387664961726216e-02
8.211921450214987317e-03
8.209966250812605892e-03
1.320801105141056198e-02
1.720605585200818410e-02
2.720410065260603361e-02
4.220214545320377653e-02
4.220019025380183919e-02
4.719823505439935118e-02
5.219627985499686318e-02
5.219432465559492584e-02
4.719236945619265100e-02
4.719041425679026958e-02
4.218845905738799473e-02
3.218650385798582647e-02
2.718454865858355163e-02
2.218259345918127678e-02
1.718063825977900194e-02
1.317868306037661696e-02
8.176727860974342121e-03
8.174772661572404786e-03
8.172817462170023362e-03
8.170862262767641937e-03
8.168907063365260512e-03
8.166951863963323177e-03
3.164996664561048334e-03
3.163041465158666909e-03
3.161086265756729574e-03
3.159131066354348150e-03
-1.842824133047926694e-03
-1.844779332449864029e-03
-1.184673453185247638e-02
-2.684868973125498215e-02
-4.085064493065715396e-02
-4.085260013005909130e-02
-4.085455532946147272e-02
-2.185651052886372625e-02
-1.858465728265645822e-03
1.313957907233165301e-02
1.713762387292927514e-02
2.213566867352767531e-02
2.213371347412529389e-02
2.213175827472291246e-02
1.712980307532019353e-02
1.312784787591825264e-02
8.125892676515977797e-03
3.123937477113702954e-03
-1.878017722288127800e-03
-1.187997292169074015e-02
-1.688192812109301499e-02
-2.188388332049528984e-02
-1.688583851989733375e-02
-1.188779371929982176e-02
-1.889748918701972258e-03
3.108295881895983825e-03
8.106340682493495819e-03
1.710438548309101137e-02
1.710243028368907403e-02
1.710047508428669261e-02
1.309851988488430763e-02
1.309656468548192620e-02
1.309460948607998887e-02
1.309265428667760744e-02
1.309069908727522602e-02
1.308874388787328868e-02
1.308678868847090726e-02
1.708483348906852939e-02
2.208287828966692956e-02
1.708092309026421063e-02
1.707896789086182920e-02
1.707701269145944778e-02
1.707505749205751044e-02
1.707310229265512902e-02
1.307114709325274404e-02
1.306919189385080671e-02
1.706723669444842884e-02
1.706528149504604741e-02
1.706332629564411008e-02
1.706137109624172865e-02
1.305941589683934367e-02
1.305746069743696225e-02
8.055505498035131495e-03
3.053550298632856652e-03
-6.948404900769755699e-03
-1.950360100171355526e-03
3.047684700426156468e-03
3.045729501023775043e-03
3.043774301621393619e-03
-1.958180897780437135e-03
-1.960136097182818560e-03
-6.962091296585537492e-03
-1.696404649598726166e-02
-1.196600169538974967e-02
-1.967956894791900169e-03
3.030087905806055915e-03
-1.971867293596218929e-03
-1.197382249299883128e-02
-3.097577769240134060e-02
-4.097773289180306477e-02
-4.097968809120544620e-02
-4.098164329060782762e-02
-4.598359849000965838e-02
-4.598555368941203980e-02
-4.598750888881442123e-02
-4.598946408821635856e-02
-4.099141928761884657e-02
-2.699337448702143760e-02
-2.199532968642348152e-02
-6.997284885825738598e-03
2.200075991477223880e-02
4.699880471536976856e-02
4.699684951596783122e-02
3.199489431656532545e-02
1.699293911716281968e-02
1.699098391776088235e-02
1.298902871835849737e-02
7.987073518956222529e-03
2.985118319553947686e-03
-2.016836879847883068e-03
-7.018792079250602001e-03
-1.202074727865287684e-02
-3.602270247805483550e-02
-7.002465767745702507e-02
-1.000266128768596552e-01
-1.190285680762612763e-01
-1.290305232756638887e-01
-1.340324784750661635e-01
-1.340344336744685450e-01
-1.240363888738706954e-01
-1.240383440732730769e-01
-1.190402992726751208e-01
-1.140422544720771647e-01
-1.140442096714795461e-01
-1.100461648708819240e-01
-1.050481200702844120e-01
-1.000500752696864559e-01
-9.005203046908860642e-02
-5.605398566849117969e-02
-2.205594086789286479e-02
2.194210393270479287e-02
6.594014873330245052e-02
1.049381935339002148e-01
1.439362383344979790e-01
1.829342831350957432e-01
1.879323279356932552e-01
1.689303727362911900e-01
1.489284175368887908e-01
1.249264623374863881e-01
9.592450713808453600e-02
7.092255193868224339e-02
5.192059673927973407e-02
3.691864153987767239e-02
2.691668634047550412e-02
2.191473114107322928e-02
1.691277594167051035e-02
7.910820742268676042e-03
-7.091134457133829727e-03
-1.209308965653610457e-02
-1.709504485593793532e-02
-1.709700005534031675e-02
-2.709895525474292910e-02
-2.710091045414486643e-02
-2.710286565354724786e-02
-2.710482085294962928e-02
-2.210677605235167320e-02
-2.108731251753592773e-03
2.688931354884394054e-02
2.688735834944155911e-02
2.188540315003972836e-02
1.688344795063700943e-02
1.688149275123462800e-02
1.687953755183224658e-02
1.287758235243030569e-02
1.287562715302792427e-02
1.687367195362554639e-02
2.187171675422394657e-02
2.186976155482156514e-02
2.186780635541918372e-02
2.686585115601713980e-02
3.186389595661465179e-02
2.186194075721248353e-02
1.285998555780976105e-02
7.858030358407930294e-03
7.856075159005548869e-03
1.685411995960306442e-02
1.685216476020112708e-02
2.185020956079908316e-02
2.184825436139670174e-02
1.684629916199442690e-02
1.684434396259204547e-02
1.284238876318966049e-02
7.840433563787385651e-03
2.838478364385554897e-03
-2.163476835016719946e-03
2.834567965580792048e-03
1.283261276617864155e-02
2.183065756677660119e-02
2.682870236737411318e-02
3.182674716797206926e-02
4.682479196856981218e-02
5.182283676916732418e-02
5.182088156976494275e-02
5.181892637036300542e-02
4.181697117096083716e-02
4.181501597155845573e-02
3.681306077215618089e-02
3.681110557275379946e-02
3.680915037335141804e-02
3.180719517394914320e-02
2.680523997454731244e-02
2.180328477514503760e-02
1.280132957574231511e-02
7.799374376340484361e-03
7.797419176938102936e-03
7.795463977535721511e-03
2.793508778133890758e-03
2.791553578731509333e-03
-2.210401620670765510e-03
-2.212356820073146935e-03
-1.221431201947531520e-02
-1.721626721887759004e-02
-2.221822241827986488e-02
-2.722017761768213973e-02
-3.122213281708452470e-02
-3.122408801648690613e-02
-2.222604321588850240e-02
-7.227998415291203571e-03
1.277004638530643277e-02
2.176809118590439240e-02
2.676613598650234849e-02
2.676418078709996706e-02
2.176222558769769222e-02
1.676027038829541738e-02
1.275831518889303240e-02
1.275635998949065097e-02
2.175440479008905470e-02
2.675244959068656669e-02
2.175049439128429185e-02
1.674853919188157292e-02
1.674658399247963558e-02
1.674462879307725416e-02
1.274267359367486918e-02
1.674071839427293540e-02
1.673876319487055397e-02
1.673680799546817255e-02
1.673485279606579113e-02
1.273289759666385024e-02
7.730942397261575394e-03
7.728987197859193969e-03
2.727031998457363215e-03
7.725076799054875210e-03
7.723121599652493785e-03
1.272116640025044987e-02
1.271921120084806844e-02
2.717256001445900182e-03
-7.284699197956712169e-03
-1.728665439735843634e-02
-2.228860959676071118e-02
-1.729056479616319919e-02
-2.292519995565012181e-03
2.705524805032499813e-03
7.703569605630011807e-03
7.701614406228074472e-03
1.669965920682559002e-02
1.669770400742320859e-02
1.669574880802082717e-02
1.669379360861888983e-02
2.169183840921684592e-02
2.168988320981446449e-02
2.168792801041252716e-02
1.668597281100980823e-02
1.268401761160742325e-02
-2.317937587794194343e-03
-1.231989278719680669e-02
-1.732184798659908154e-02
-1.732380318600146296e-02
-1.732575838540340030e-02
-1.232771358480588830e-02
-1.732966878420816315e-02
-2.233162398360999390e-02
-2.233357918301237532e-02
-1.733553438241486333e-02
-1.733748958181724475e-02
-1.233944478121928867e-02
-2.341399980621439170e-03
7.656644819975966243e-03
2.165468962057426339e-02
3.165273442117166880e-02
4.665077922176941172e-02
4.664882402236747438e-02
3.664686882296486203e-02
3.164491362356258719e-02
3.164295842416020577e-02
2.664100322475837501e-02
2.163904802535610017e-02
1.663709282595338124e-02
2.663513762655167483e-02
3.663318242714908024e-02
4.663122722774692974e-02
4.662927202834499241e-02
4.162731682894271756e-02
3.162536162954010521e-02
2.162340643013793695e-02
1.262145123073565856e-02
7.619496031333383712e-03
-2.382459168068784550e-03
-1.238441436747095281e-02
-1.738636956687322765e-02
-3.638832476627573698e-02
-6.139027996567758549e-02
-9.039223516507988165e-02
-1.003941903644824940e-01
-1.053961455638847688e-01
-1.053981007632867062e-01
-1.054000559626890876e-01
-1.054020111620914690e-01
-1.004039663614935129e-01
-9.040592156089566345e-02
-8.040787676029825803e-02
-7.540983195970030195e-02
-7.541178715910223929e-02
-7.541374235850462071e-02
-7.541569755790700214e-02
-6.641765275730904250e-02
-5.141960795671129958e-02
-5.142156315611368100e-02
-7.042351835551574624e-02
-8.042547355491835859e-02
-7.542742875432040250e-02
-5.142938395372276261e-02
-4.143133915312491311e-02
-5.143329435252708137e-02
-5.643524955192980030e-02
-5.643720475133173764e-02
-8.043915995073414038e-02
-9.544111515013620206e-02
-8.544307034953835256e-02
-7.044502554894060964e-02
-7.044698074834299106e-02
-7.044893594774537249e-02
-5.645089114714751943e-02
-3.645284634654988309e-02
-3.145480154595237110e-02
-4.145675674535409527e-02
-5.145871194475626353e-02
-5.146066714415864496e-02
-3.146262234356100862e-02
-7.464577542963368728e-03
2.653346725763450209e-02
6.053151205823192882e-02
7.552955685883011583e-02
8.052760165942762782e-02
9.052564646002547732e-02
9.052369126062353999e-02
9.952173606122105554e-02
1.095197808618184609e-01
1.195178256624163105e-01
1.195158704630143731e-01
1.195139152636119917e-01
1.195119600642096103e-01
1.145100048648077795e-01
1.045080496654051672e-01
9.050609446600299535e-02
8.050413926660082709e-02
7.050218406719865882e-02
6.050022886779604647e-02
6.049827366839366505e-02
5.549631846899183429e-02
4.649436326958955590e-02
4.149240807018728106e-02
3.649045287078500621e-02
3.648849767138262479e-02
4.648654247198047429e-02
5.548458727257843393e-02
6.048263207317594592e-02
5.548067687377367108e-02
5.147872167437128610e-02
4.647676647496945534e-02
4.147481127556718050e-02
3.147285607616456815e-02
2.647090087676273740e-02
2.146894567736046255e-02
1.646699047795774362e-02
2.146503527855614379e-02
2.146308007915376237e-02
2.146112487975138094e-02
1.645916968034866201e-02
1.645721448094672468e-02
1.245525928154433970e-02
7.453304082142064857e-03
2.451348882740234103e-03
2.449393683337852679e-03
7.447438483935364673e-03
1.644548328453288022e-02
1.244352808513093933e-02
2.441572885728771070e-03
-7.560382313673841281e-03
-1.756233751307556545e-02
-2.256429271247784030e-02
-2.256624791188022172e-02
-2.256820311128215906e-02
-1.757015831068464706e-02
-7.572113510087241650e-03
7.425931290510501270e-03
1.642397609110846091e-02
2.142202089170641699e-02
2.142006569230403557e-02
1.641811049290176072e-02
1.641615529349937930e-02
1.641420009409699787e-02
1.241224489469505698e-02
7.410289695292782142e-03
2.408334495890507299e-03
2.406379296488125874e-03
2.404424097086188539e-03
7.402468897683700533e-03
2.140051369828155359e-02
3.639855849887929651e-02
4.139660329947725259e-02
3.139464810007464024e-02
2.139269290067291607e-02
1.639073770127019714e-02
1.638878250186781571e-02
1.638682730246543429e-02
1.638487210306349695e-02
1.638291690366111553e-02
1.638096170425873410e-02
1.237900650485679321e-02
7.377051305454518371e-03
7.375096106052136946e-03
7.373140906649755522e-03
1.237118570724771160e-02
1.636923050784533373e-02
1.636727530844295231e-02
1.636532010904101497e-02
1.236336490963863000e-02
1.236140971023624857e-02
1.235945451083431124e-02
7.357499311432036393e-03
7.355544112029654968e-03
2.353588912627380125e-03
2.351633713225442790e-03
2.349678513823061365e-03
2.347723314420679941e-03
-2.654231884981150813e-03
-7.656187084383869745e-03
-7.658142283786251170e-03
-2.660097483187850997e-03
-2.662052682590232422e-03
-7.664007881992951354e-03
-1.266596308139522620e-02
-1.266791828079716353e-02
-7.669873480199651539e-03
2.328171320398197963e-03
7.326216120996154046e-03
7.324260921593772622e-03
1.232230572219128462e-02
7.320350522789453862e-03
2.318395323387179019e-03
2.316440123984797594e-03
2.314484924582416170e-03
2.312529725180478835e-03
7.310574525777990829e-03
7.308619326375609404e-03
2.306664126973778650e-03
2.304708927571397226e-03
2.302753728169015801e-03
2.300798528767078466e-03
2.298843329364697041e-03
2.296888129962315617e-03
-2.705067069439959226e-03
2.292977731157996857e-03
2.291022531755615432e-03
7.289067332353127426e-03
7.287112132951190091e-03
7.285156933548808667e-03
7.283201734146427242e-03
7.281246534744045817e-03
7.279291335342108482e-03
-7.722663864060397287e-03
-2.772461906346279648e-02
-3.672657426286463078e-02
-3.672852946226701221e-02
-3.173048466166950021e-02
-2.273243986107109649e-02
-2.273439506047347791e-02
-2.273635025987585934e-02
-2.773830545927857827e-02
-4.174026065868030599e-02
-5.674221585808281176e-02
-7.574417105748487700e-02
-9.074612625688693868e-02
-9.574808145628921352e-02
-8.075003665569191469e-02
-4.175199185509370636e-02
1.224605294550373813e-02
6.524409774610173685e-02
9.024214254669926660e-02
9.924018734729722624e-02
9.523823214789484126e-02
8.023627694849233549e-02
5.523432174909048697e-02
4.123236654968831516e-02
3.623041135028559623e-02
1.622845615088364113e-02
2.226500951481469315e-03
-2.775454247920805528e-03
1.222259055267649330e-02
2.622063535327479045e-02
4.621868015387242679e-02
5.121672495446993878e-02
5.121476975506800144e-02
4.621281455566572660e-02
2.621085935626332741e-02
1.220890415686071151e-02
7.206948957458880756e-03
1.220499375805639275e-02
2.120303855865435239e-02
2.620108335925230847e-02
2.119912815985003363e-02
2.119717296044765220e-02
1.619521776104537736e-02
1.619326256164299593e-02
1.619130736224061451e-02
1.218935216283822953e-02
1.218739696343629220e-02
1.218544176403391077e-02
1.618348656463153290e-02
2.118153136522993307e-02
3.117957616582733849e-02
2.617762096642506364e-02
2.617566576702312631e-02
2.117371056762085146e-02
2.117175536821847004e-02
3.116980016881587545e-02
3.116784496941393812e-02
2.616588977001166327e-02
2.116393457060938843e-02
1.616197937120711359e-02
1.216002417180472861e-02
7.158068972402453767e-03
1.215611377300040985e-02
7.154158573598135007e-03
-7.847796625804370763e-03
-3.184975182520677350e-02
-5.685170702460862202e-02
-6.185366222401089686e-02
-6.185561742341327829e-02
-5.685757262281532221e-02
-6.185952782221759705e-02
-7.086148302161987544e-02
-8.086343822102248780e-02
-8.086539342042442513e-02
-7.586734861982646905e-02
-7.586930381922885047e-02
-6.687125901863089084e-02
-4.687321421803325450e-02
-3.187516941743595567e-02
-1.787712461683765852e-02
1.612092018375976821e-02
5.511896498435753244e-02
7.511700978495516878e-02
7.011505458555333803e-02
7.011309938615095660e-02
7.511114418674846860e-02
7.510918898734653126e-02
7.510723378794414984e-02
7.010527858854187500e-02
6.510332338914004424e-02
5.510136818973743189e-02
4.109941299033526008e-02
2.609745779093275431e-02
1.609550259153058605e-02
7.093547392128307649e-03
7.091592192725926225e-03
7.089636993323988889e-03
7.087681793921607465e-03
-2.914273405480560797e-03
-1.291622860488272906e-02
-1.291818380428511048e-02
-7.920139003687598489e-03
-2.922094203089642406e-03
2.075950597508313678e-03
7.073995398105825672e-03
1.207204019870333767e-02
2.107008499930174139e-02
3.106812979989914680e-02
3.606617460049665880e-02
3.606421940109427737e-02
3.106226420169244662e-02
1.606030900228994085e-02
7.058353802887662454e-03
2.056398603485831700e-03
-2.945556595916443143e-03
2.052488204681068851e-03
7.050533005279024934e-03
2.048577805876750091e-03
-2.953377393525524752e-03
-7.955332592928243685e-03
-2.295728779232986128e-02
-3.195924299173258376e-02
-2.796119819113496163e-02
-3.196315339053690252e-02
-3.196510858993928395e-02
-3.196706378934166537e-02
-3.696901898874349612e-02
-5.197097418814555780e-02
-6.697292938754806357e-02
-8.097488458695067948e-02
-9.097683978635240365e-02
-9.597879498575467849e-02
-9.598075018515705992e-02
-8.598270538455921042e-02
-7.098466058396146749e-02
-3.698661578336404077e-02
7.011429017234060979e-03
3.600947381783159429e-02
5.500751861842934076e-02
8.000556341902687052e-02
8.000360821962493318e-02
8.000165302022255176e-02
7.999969782082017034e-02
8.499774262141812642e-02
7.999578742201585158e-02
6.999383222261368331e-02
5.099187702321117399e-02
3.598992182380911231e-02
2.598796662440694405e-02
2.098601142500466921e-02
1.598405622560239436e-02
1.598210102620001294e-02
1.598014582679763151e-02
1.597819062739569418e-02
2.097623542799365026e-02
2.097428022859126884e-02
1.597232502918854991e-02
1.197036982978660902e-02
1.196841463038422759e-02
1.596645943098184972e-02
2.596450423158014331e-02
3.596254903217754872e-02
4.096059383277550481e-02
3.595863863337322996e-02
3.595668343397084854e-02
2.595472823456868028e-02
1.595277303516606793e-02
1.595081783576413059e-02
1.194886263636174561e-02
6.946907436959470772e-03
6.944952237557533437e-03
6.942997038155152012e-03
1.194104183875266401e-02
1.193908663935072667e-02
6.937131439948451828e-03
1.935176240546176984e-03
1.933221041143795560e-03
-3.068734158258035194e-03
-3.070689357660416619e-03
-8.072644557063135551e-03
1.925400243535158040e-03
1.592344504413256701e-02
2.592148984473041651e-02
2.591953464532803508e-02
3.591757944592588458e-02
5.091562424652362751e-02
5.491366904712124963e-02
5.091171384771930875e-02
4.590975864831703390e-02
3.590780344891442155e-02
2.590584824951269738e-02
1.190389305011008148e-02
1.901937850707913213e-03
-1.310001734869459256e-02
-1.810197254809642331e-02
-1.810392774749880473e-02
-2.310588294690107958e-02
-3.210783814630335797e-02
-4.210979334570552624e-02
-4.711174854510780108e-02
-5.211370374450963183e-02
-4.711565894391211984e-02
-3.711761414331471443e-02
-2.811956934271719888e-02
-1.312152454211901187e-02
-8.123479741521499875e-03
-1.812543494092366814e-02
-3.212739014032583995e-02
-4.212934533972800821e-02
-3.213130053913060280e-02
6.866744261467605526e-03
5.086478906206526318e-02
7.986283386266279649e-02
8.986087866326064599e-02
7.985892346385847773e-02
6.985696826445630947e-02
5.485501306505380370e-02
3.585305786565173847e-02
6.851102666249442308e-03
-1.315085253315295688e-02
-3.715280773255535962e-02
-4.715476293195708379e-02
-4.715671813135946522e-02
-3.215867333076216639e-02
-8.160628530164082406e-03
6.837416270433660515e-03
3.083546107103130041e-02
5.983350587162927781e-02
6.483155067222723389e-02
4.582959547282472457e-02
2.082764027342243196e-02
6.825685074020260146e-03
1.182372987461777214e-02
2.082177467521573178e-02
1.581981947581345693e-02
6.817864276411178537e-03
1.181590907700869053e-02
2.081395387760709426e-02
2.581199867820460625e-02
2.581004347880222483e-02
1.580808827939961247e-02
6.806133079997778168e-03
6.804177880595396744e-03
1.802222681193121900e-03
1.800267481791184565e-03
1.798312282388803141e-03
1.796357082986421716e-03
1.179440188358427122e-02
2.079244668418223085e-02
3.079049148477963627e-02
4.578853628537737919e-02
5.478658108597533882e-02
5.078462588657295385e-02
4.578267068717067900e-02
3.578071548776851074e-02
3.077876028836623590e-02
2.077680508896406764e-02
1.177484988956134515e-02
1.772894690159620978e-03
1.770939490757239554e-03
-3.231015708645035289e-03
-8.232970908047310132e-03
-1.323492610744958498e-02
-1.323688130685196640e-02
-8.238836506254010317e-03
-3.240791705656054233e-03
1.757253094941457761e-03
-3.244702104460817083e-03
-1.824665730386287876e-02
-2.824861250326549111e-02
-3.225056770266787609e-02
-3.225252290206981343e-02
-2.825447810147219130e-02
-1.325643330087444838e-02
-8.258388500276492294e-03
6.739656300321250626e-03
6.737701100918869201e-03
1.735745901516594358e-03
-8.266209297885573903e-03
-1.326816449728784875e-02
-1.327011969669023017e-02
-1.327207489609216751e-02
-1.327403009549454893e-02
-1.327598529489693036e-02
-1.827794049429876111e-02
-1.827989569370114253e-02
-1.328185089310363054e-02
-3.283806092505781038e-03
6.714238708092068464e-03
6.712283508689687039e-03
1.710328309287412196e-03
1.170837310988526170e-02
2.570641791048311475e-02
4.570446271108075109e-02
6.470250751167849756e-02
8.470055231227613390e-02
8.969859711287408999e-02
8.469664191347137105e-02
7.469468671406964688e-02
6.469273151466747862e-02
5.069077631526486272e-02
3.568882111586280104e-02
2.068686591646073936e-02
1.568491071705802042e-02
1.168295551765563545e-02
6.681000318253804693e-03
6.679045118851423268e-03
1.167708991944893526e-02
2.067513472004733899e-02
3.067317952064474440e-02
3.067122432124236298e-02
3.066926912184042564e-02
2.566731392243815080e-02
2.066535872303587595e-02
2.066340352363349453e-02
2.066144832423155719e-02
1.565949312482883826e-02
1.657537925426666447e-03
-3.344417273975164306e-03
6.653627526622241106e-03
6.651672327219859682e-03
6.649717127817922346e-03
6.647761928415540922e-03
1.164580672901305292e-02
1.164385152961067149e-02
6.641896330208840737e-03
1.639941130806565894e-03
6.637985931404077888e-03
1.163603073200203397e-02
1.563407553259965610e-02
1.563212033319727468e-02
6.630165133795440369e-03
6.628209934393058944e-03
1.626254734990784101e-03
6.624299535588296095e-03
6.622344336186358760e-03
1.162038913678387075e-02
1.561843393738149288e-02
1.561647873797955555e-02
1.161452353857717057e-02
-3.387431660824891111e-03
-1.838938686022739688e-02
-3.239134205962956869e-02
-3.739329725903184354e-02
-4.239525245843411838e-02
-4.239720765783605572e-02
-4.239916285723843714e-02
-2.840111805664102818e-02
-3.403073256042610240e-03
1.559497154455469214e-02
1.559301634515231072e-02
1.559106114574992930e-02
6.589105946348094989e-03
-8.412849253054410781e-03
-2.841480445245680997e-02
-4.241675965185853769e-02
-4.741871485126081254e-02
-4.742067005066319396e-02
-4.242262525006523788e-02
-3.242458044946783247e-02
-2.842653564887021034e-02
-2.842849084827259176e-02
-2.843044604767452910e-02
-3.243240124707691407e-02
-4.243435644647908234e-02
-4.743631164588091309e-02
-4.743826684528329451e-02
-4.744022204468567594e-02
-4.244217724408771986e-02
-8.444132443490293127e-03
4.555391235710759545e-02
9.855195715770515008e-02
1.135500019583033371e-01
9.854804675890083132e-02
7.954609155949832200e-02
5.954413636009636690e-02
5.454218116069409206e-02
4.054022596129192024e-02
3.053827076188930789e-02
2.053631556248758372e-02
1.553436036308486479e-02
1.553240516368248336e-02
2.053044996428088353e-02
2.552849476487839553e-02
3.052653956547590752e-02
3.552458436607386361e-02
3.052262916667158876e-02
2.052067396726942050e-02
1.551871876786670157e-02
6.516763568464867262e-03
-3.485191630937300999e-03
-8.487146830340019932e-03
-1.848910202974174410e-02
-2.349105722914401895e-02
-2.349301242854640037e-02
-1.849496762794844429e-02
-3.496922827350701368e-03
1.150112197324659746e-02
2.549916677384445052e-02
2.549721157444251318e-02
2.049525637504023834e-02
2.049330117563785691e-02
2.549134597623581300e-02
2.548939077683343157e-02
2.048743557743115673e-02
1.548548037802888189e-02
6.483525178626603491e-03
-3.518430020775564770e-03
-3.520385220177946195e-03
6.477659580419903307e-03
4.047570438101777412e-02
5.047374918161517954e-02
2.547179398221333102e-02
-3.530161217188965139e-03
-2.353211641659136433e-02
-3.253407161599408681e-02
-3.753602681539591757e-02
-4.753798201479808583e-02
-5.753993721420069818e-02
-6.754189241360242235e-02
-6.754384761300480378e-02
-6.754580281240718520e-02
-6.754775801180912254e-02
-7.654971321121140093e-02
-1.065516684106140310e-01
-1.355536236100163272e-01
-1.545555788094183924e-01
-1.455575340088208769e-01
-1.405594892082229208e-01
-1.255614444076251779e-01
-7.656339960702718273e-02
-2.356535480642962810e-02
1.432689994168345748e-03
-8.569265205234266602e-03
-1.357122040463654145e-02
-8.573175604039029452e-03
