1.135757305091151576e-13
6.739590731572985272e-01
5.507652924846274667e-01
1.704889651242433302e-01
8.571664158083248941e-02
1.788540530690144736e-01
1.851817856752739078e-01
1.559160383170399844e-01
8.314924525665501331e-02
2.597324418097341492e-01
2.252404781494550881e-02
9.230984010608950241e-02
7.362815013554600829e-02
4.073882085067388747e-02
1.048319287958039830e-01
8.173664508962526221e-02
1.034664681043765688e-01
4.344384978799828434e-02
9.999978560093633617e-02
1.148417483789626256e-02
5.867388890495495168e-02
6.005286893388656067e-02
4.167620305009824694e-02
2.178788006437067104e-02
2.022602093421342964e-02
4.532535530333474394e-02
4.008282290486121779e-02
6.698869550620831226e-02
1.031675400342885601e-01
4.710378030556446570e-03
5.912889065380851766e-02
3.492107203246118396e-02
2.791385981261914132e-02
7.617203046856320381e-02
1.096643597704708845e-01
1.475077992650912218e-01
1.508256816012317203e-01
1.687892134183981430e-01
1.631448364407430962e-01
1.854659916759771321e-01
9.032647747244025582e-02
1.195941839662644779e-01
1.167636909618761654e-01
9.121724610768491837e-02
1.478873250740905532e-01
1.030510385333148482e-01
1.322001404244611544e-01
1.940136992816174633e-01
3.155340607197374414e-01
1.323030240816756020e-01
4.646037785708732187e-02
8.619358719684658277e-02
2.212827351013552379e-01
2.040397807009015352e-01
2.257976542687754329e-01
1.817765923532755901e-01
1.696957208092378377e-01
1.467384646360852807e-01
3.342574652381298250e-01
2.267575847662918198e-01
1.794451746974014550e-01
3.090832869610717348e-01
4.056511258937485764e-01
1.374079610358723003e-01
2.216564180689221952e-01
2.399680955234732016e-01
3.269560700263758335e-01
2.619572109083362910e-01
2.877817821153081934e-01
3.133102089498716603e-01
4.108014907746144195e-01
4.051854484472673934e-01
7.912998119261706043e-01
5.696745704288616041e-01
1.735066103756921774e-01
6.421118608059979138e-01
1.669280114940313309e-01
2.588983933677108662e-01
3.100358574958546054e-01
1.318080471819364774e-01
1.834415118417466739e-01
3.980335719411240425e-01
1.551044451042181138e-01
2.368705506490025037e-01
2.331211192455846237e-01
2.067277331144253272e-01
5.418703990839808249e-01
1.113717306453670397e-01
4.332838447414276706e-01
5.784136698403834487e-01
1.241258517202490502e-01
2.070530591393943132e-01
2.611472693395502920e-01
7.204127405068476708e-01
3.189639075847862659e-01
4.120717830504384560e-01
2.077615952172984504e-01
2.956058926501190509e-01
5.680004944303264081e-01
1.447667277436162081e-01
5.764069830129816552e-01
3.804887037849902787e-01
8.829388424660616908e-01
1.289267737974151562e-01
1.910633537731791787e-01
2.740406376868397831e-01
2.900132195809289604e-01
6.763169026095086078e-01
1.521122893999900527e-01
1.871513493941974193e-01
5.661182481307763803e-01
3.274099948877639554e-01
3.596589991226313288e-01
2.267533080683886981e-01
3.775230141178048671e-01
4.824721534330623784e-01
5.790997399644024490e-01
8.013090524137326254e-01
5.844740970466156815e-01
1.594074000984460060e-01
2.055142530170332438e-01
2.744989336295410309e-01
3.141218079778053673e-01
1.433683403172222870e-01
5.853526517883618219e-01
8.403096664008378180e-01
5.233218669580277371e-01
5.421085268532803703e-01
2.506634056915845732e-01
4.307376628501171645e-01
4.705500883875886053e-01
3.071804278321056958e-01
3.124202750077130775e-01
4.163072376845463052e-01
5.621736202343955435e-01
1.605431398267882781e-01
3.745752145526671795e-01
2.589991892499839965e-01
4.643525486290489557e-01
1.000000000000000000e+00
5.279022540328921487e-01
4.442006480104541133e-01
1.291056870467578999e-01
1.845169648745448865e-01
3.104586756089461330e-01
4.997155966339548727e-01
5.316462482809574119e-01
3.839859330048036590e-01
4.247959738214461267e-01
2.551625231256520188e-01
3.964301984904197718e-01
2.587684349721244281e-01
1.760778689682000187e-01
3.367566113723831633e-01
4.782906943023871316e-01
3.172368205424929699e-01
1.759787612344346497e-01
6.764067108895155389e-02
1.704523715854334709e-01
4.295114508823649757e-01
2.922260452326247426e-01
3.952624449067075885e-01
9.071454055301636510e-02
2.337049395535019392e-01
6.673075007625514088e-01
3.441158756975403743e-01
9.490488490707778002e-01
4.006090968587882606e-01
6.755540816003356985e-01
5.590423356806887289e-01
6.845970251549880758e-02
7.005752542390991655e-01
4.351459968562974567e-01
4.308980753522836937e-01
1.313893505721837884e-01
2.886931406426016533e-01
3.462872651839914995e-01
4.803348526972417432e-01
5.522773047899670606e-01
7.755595574008712356e-01
1.251816377953537118e-01
3.345222795544420258e-01
1.783761676322603296e-01
7.728691049804365942e-01
4.348209411525019719e-01
6.114826303763409854e-01
5.336589627013759163e-01
6.763586371928980157e-01
5.600804861764657749e-02
5.414030628665484901e-01
8.182534741578811888e-01
2.418220044182522732e-01
2.724485175500286904e-01
4.705370595727528249e-01
7.957991375703569181e-01
5.501087360100797019e-01
6.379440930080466643e-01
1.519555038378935519e-01
5.681034284551239599e-01
5.608715989647673483e-01
5.908329385046188209e-01
1.850962191440147231e-01
3.705851085741301287e-01
7.773146472281542430e-01
5.327803454142970851e-01
5.318641240343169319e-01
2.589731952900179435e-01
3.417150957581290283e-01
4.610925232546076447e-01
5.972659238848161412e-01
9.688683997090513644e-02
3.790553495205007395e-01
6.572608186139752284e-01
9.930260121154813047e-02
8.370867866491471521e-01
2.926252658695496223e-01
4.162266519358470696e-01
6.782676002993968944e-02
3.337663433991425177e-01
9.642715876465057789e-02
1.506716849055523832e-01
6.325261359808669048e-02
4.624911846848357988e-01
2.336541943659670439e-01
7.261251179143624057e-01
3.317483243843564744e-01
2.525161844271189837e-01
3.665424375630461640e-01
5.839087687404419524e-01
4.353392557812235664e-01
4.132768597841634528e-01
5.544165844772543927e-01
3.141129769430990315e-01
4.380400569167272606e-01
1.497624635399830428e-01
3.769656406319339403e-01
8.313545431827296106e-01
4.817754601735121933e-01
1.779842579539594183e-01
5.834657173317562284e-01
2.121704519539260314e-01
6.525136186517996872e-01
1.331634524814555853e-01
4.901805892519079388e-01
4.014080104672956839e-01
2.439581158381489978e-01
5.175225043737498032e-01
2.620628044770663689e-01
5.117397686595380746e-01
3.345076235582144508e-01
3.475213165802064075e-01
3.210561861145609375e-01
4.400485902791635429e-01
1.099318937900528592e-01
9.825868815920030253e-02
4.162089108331756826e-01
1.426371568847895066e-01
4.487349446869049463e-01
3.909704887987704991e-01
5.416554874996142299e-01
1.290640244029927775e-01
8.513368068715036763e-02
8.981348280723562283e-01
5.910857015420246663e-01
4.243198630846611308e-01
1.424996611344545028e-01
7.753643626698698554e-01
6.417603445208747148e-01
6.905959438991985389e-01
3.679006832191838994e-01
6.343412368338617879e-01
2.711155724838910652e-01
2.348382038421562568e-01
1.720305027312515334e-01
6.908689871150819339e-02
3.941948762196725853e-01
3.023219658562671941e-01
1.839194471150014110e-01
6.113028334161526578e-01
6.110775124758808241e-01
5.171890585842542354e-01
3.359646846283222410e-01
2.821323126549928340e-01
9.023343543063887529e-01
1.990307028347555462e-01
7.092604739798814562e-01
4.382149525038423477e-01
2.773828291264565093e-01
2.836220064301160915e-01
4.714887395394716796e-01
5.661893996187978839e-01
4.411575138586693035e-01
7.167137387158080131e-01
9.074585326265231788e-02
3.680393741321141832e-01
4.676396393574995813e-01
1.088118914827536088e-01
2.544504240649754223e-01
8.702862892556863239e-02
1.990790653814694389e-01
2.198361483498075808e-01
7.133319048715129895e-01
5.610760454866813296e-01
3.158649132312618679e-01
1.007566181673257011e-01
2.944619389907839890e-01
2.543674039960377997e-01
7.080997663363910455e-01
3.600704606817815567e-01
7.565255846837276588e-01
4.941947847233947866e-01
2.260324696986183157e-01
1.769087498013273974e-01
7.109595151081816722e-01
5.510069880637471496e-01
4.888158223535450930e-01
5.209679321085148862e-01
2.999168567167459498e-01
3.561785583094466690e-01
7.019449539504832303e-02
5.980255556024791641e-01
2.797774173436251566e-01
1.641397684400870416e-01
5.224156237013367621e-01
6.701116949803549439e-01
8.505442101114506215e-02
3.042109208969161482e-01
4.604195236118750478e-01
1.709533310210207824e-01
4.815050065283166814e-01
3.636909866873151431e-01
3.300151684268458618e-01
2.916841587123334967e-01
5.726665427779659145e-01
3.639792730766835960e-01
5.311066915038642477e-01
4.982209032621306433e-01
4.780680185767280377e-01
6.497318336724338117e-01
2.530298787375817593e-01
3.189302433663562808e-01
7.887725383086311437e-01
1.807637942154224908e-01
3.366515273539279485e-01
2.083398456240678209e-01
7.582687298152460120e-02
3.715413822604699545e-01
3.153553358454957989e-01
1.598244339952801241e-01
6.661458629016091537e-01
2.896655705266630298e-01
2.390763796068111346e-01
3.268909166777939634e-01
2.339184437484768397e-01
2.202443665651426241e-01
3.396057537148111094e-01
3.254524102988303746e-01
4.018208595888365653e-01
4.390779381494459566e-01
1.400393447850350193e-01
7.296135886250294522e-01
5.802415608873386921e-01
2.603038595033293490e-01
2.386122692939948997e-01
1.271288231782490008e-01
1.829015975218696854e-01
4.193434973101495822e-01
4.760656814652007296e-01
3.694227120763365346e-01
5.500583900768333256e-01
4.325445199675962971e-01
3.486039527194649823e-01
1.430995606941253828e-01
1.931169860008833672e-01
2.974328767474948010e-01
2.307225875798976089e-01
3.266452457714332791e-01
4.205886025664460348e-01
4.067901309416683819e-01
2.719274877825078596e-01
9.938606019601231578e-02
5.104727555622442514e-01
1.128198276899281260e-01
3.831997342155578079e-01
2.516241092072859509e-01
2.411988685835635970e-01
3.648135583205253663e-01
4.555863206595512915e-01
2.625296359186261586e-01
1.665383902376233738e-01
3.496249169509638155e-01
6.336861291162156906e-01
4.758685697605614662e-01
4.447158814724991305e-01
3.507543610868214534e-01
3.449629969668502882e-01
2.331061852903630049e-01
3.266516146652879704e-01
4.485799295676198839e-01
6.078611396475479545e-01
2.834594507110767547e-01
2.078872801848286878e-01
5.222189665877837728e-01
2.805761188022635189e-01
5.390009270952442755e-01
3.798279263844179243e-01
4.018052637580799002e-01
2.852394886209340674e-01
4.513270794582513457e-01
3.886199610024766438e-01
1.023441528607438866e-01
3.130050115196606475e-01
3.965259440539640190e-01
4.853830650128811430e-01
3.966184773230689853e-01
1.521560248109743996e-01
1.791938861478002687e-01
5.851592334005203400e-01
2.852171121417107491e-01
2.079805704401615357e-02
5.566464174491687622e-01
3.758648331293404365e-01
1.742804823070771836e-01
3.345657356826340911e-01
5.638866431421858394e-01
2.924949407917044608e-01
3.045281326255423471e-01
8.499530708500054044e-02
1.561627411108519603e-01
1.801004251803547951e-01
7.717736689088561253e-02
1.044990910516089139e-01
5.780755084676802297e-02
1.172731370689469171e-01
2.696620429961171794e-01
3.058518512105735665e-01
1.925004701167019605e-01
1.240240142613142083e-01
1.493425707668218361e-01
4.026237712593517259e-01
3.225049316144566469e-01
2.505459693750449746e-01
2.543082795932960494e-01
2.090904402322340538e-01
3.528382306780215583e-01
4.028788361524391903e-01
2.223210045349287844e-01
2.238871510404726040e-01
6.650212210932913981e-02
2.977541708595865533e-01
2.874571828202658885e-01
3.255289453478033002e-01
3.252585314289807572e-01
1.838823879223593083e-01
8.107019395084337499e-02
2.874572195386695395e-01
2.244325759044651647e-01
1.858971590287267217e-01
3.570022881198996190e-02
2.385325305587248645e-01
3.128446403279221411e-01
2.558451633914087253e-01
1.309210489739993655e-01
2.984964954053636044e-01
4.346217544607094418e-01
2.584351176250597182e-01
2.463747217773810394e-01
4.310281788629843347e-01
3.084658094393264438e-01
6.170285286930019680e-02
1.951056731488396145e-01
1.075280942160794923e-01
7.721804886839005178e-02
3.727064275658029113e-01
3.485787383669371187e-02
5.222464991282550484e-01
1.499146331006084853e-01
1.224457862468887465e-01
3.475520617118260658e-01
5.407352144804994376e-01
5.241907410017363489e-01
7.144249595510618334e-02
5.015565883257794288e-01
3.845923018508217717e-01
3.571929833308858937e-01
2.390471609571798439e-01
8.676652674641686935e-02
2.465423885039310370e-01
1.188980512545259466e-01
6.235757007143399866e-02
1.301498661381680355e-01
9.646523667328041340e-02
1.726887169732708449e-01
1.211841424760263519e-01
1.523737398729107517e-01
1.433357265842918338e-01
2.330458712039286395e-01
1.162088232151897299e-01
1.984851685175842428e-01
1.130161616340349950e-01
3.090117225882335616e-01
5.742477341562923776e-02
1.183702752659301499e-01
8.953240201165826861e-02
9.241341510334696863e-02
1.118372780506467351e-01
5.442009820346932480e-02
3.291693816546954476e-01
2.876191957506366026e-01
4.037081676885412307e-02
6.454998356423555239e-02
1.543649968067728473e-01
1.900077904719364164e-01
2.381049458616296965e-01
1.090793426246072090e-01
2.461038275399136666e-01
3.905383343275300456e-01
1.593960077556715316e-01
1.507847474392745024e-01
3.961123747967150166e-01
2.128298921325478543e-01
1.234021358889586945e-01
2.954873580923351728e-01
3.806692034535648639e-01
4.850307945380871039e-02
1.225164891961181279e-01
1.436633941456638974e-01
8.997109664122669714e-02
1.925477940768392238e-01
1.322072743543041551e-01
5.123941795923653980e-02
2.127393055879568395e-01
3.760968069192313079e-01
3.095237840869501378e-01
8.228374226688006665e-02
2.958548395006955212e-01
4.614906487555456294e-02
6.178506354322205879e-02
2.068620439984399928e-01
1.415493085050776034e-01
8.492634782317445841e-02
1.043035200990510558e-01
2.126658011692671435e-01
2.100091776614768369e-01
1.009281500938881554e-01
9.442786667686731139e-02
1.260959867339124796e-01
1.270306952229268149e-01
1.184000765609283523e-01
1.297724811308044734e-01
1.150246933825086054e-01
2.331837453349572264e-01
3.666604364878216504e-01
8.590010551397660177e-02
2.003569099876817139e-01
2.504684870816292208e-01
1.821600046920938132e-01
2.780645635413865890e-01
2.259424392587303446e-02
1.888216737091235331e-01
2.873149443837322292e-01
1.181110783634955474e-01
9.798227260782031711e-02
7.845932233383237642e-02
1.825206591640498865e-01
6.253754144649108226e-02
2.461789866528306947e-01
2.057383183010090821e-01
3.588495593035386788e-01
1.292715415212197239e-01
1.310581176374663870e-01
7.545635732648403593e-02
1.560519681107247758e-01
1.949021092035561620e-01
1.082689455029005737e-01
2.581291778447826757e-01
2.056951176892796440e-01
1.095663277763545690e-01
2.421087438243764434e-01
2.612635054835508730e-01
1.226049852916604732e-01
5.709391147408030692e-02
1.171366455809703250e-01
1.229978183835836875e-01
1.535545392095468697e-01
2.319083260742022534e-01
8.193544947445237370e-02
8.956492639313341775e-02
8.322788715118084601e-02
1.169221277036304046e-01
1.198276045193453210e-01
9.579418138805344263e-02
9.194729386060608578e-02
2.276394569010867786e-01
7.554443042267779129e-02
1.223768206142939879e-01
5.074956342461673514e-02
5.174285697033593860e-03
7.142807754302081535e-02
3.086977115828202362e-02
1.029438301217102253e-01
1.116083319889955849e-01
3.764744476304704435e-02
1.256657208695546590e-01
1.884738623216033471e-01
1.349039849688844772e-01
8.991978366600746064e-02
5.667242845859649103e-02
1.701689999253159225e-01
1.579389888302724643e-01
1.862433181961543338e-01
1.093102004439202718e-01
1.608576707770094094e-01
1.517530175736816755e-01
1.089000647568858920e-01
1.513531215428762233e-01
1.669297400722674074e-01
5.655070160253703598e-02
1.080901152165403417e-01
1.401345200982901940e-01
6.106152427422090190e-02
1.272394331824091770e-02
1.290274495906749419e-01
1.399084612514342740e-01
9.252954485260385387e-02
1.594444280369751721e-01
1.763160692762057516e-02
1.165823968949146194e-01
1.239019133035354908e-01
6.773890315349133384e-02
9.733289538663215945e-02
1.973924074934587172e-02
5.364382494155676973e-02
1.178888268346870230e-02
8.444959776888369407e-02
1.472895266290846494e-01
1.529098050682664856e-01
1.928219106882934630e-01
1.142304670426821656e-01
1.362797254741173747e-01
6.088871491996856317e-02
1.758133413503036591e-02
1.141311634764583249e-01
2.262232392885460130e-01
8.419901674520501034e-02
6.326162885948746761e-02
5.426084858255585813e-02
5.938721267907521445e-02
9.915438606348384032e-02
1.984895912760748504e-01
1.794835633595161517e-01
8.203963998006288949e-02
8.307557612576267625e-02
8.386918321974291823e-02
5.001090142888119094e-02
7.821783898045434058e-02
1.383454857683214800e-01
1.035544290351553265e-02
1.428911643715557456e-01
2.908487440473235888e-02
4.010996319751584938e-02
8.178245086396007668e-02
1.317175493572248501e-01
1.208892022497747715e-01
1.100150337384088739e-01
4.453012881726580580e-02
1.031229126345616642e-01
9.926346369557605132e-02
4.952399189511814959e-02
1.375037094936924775e-02
1.018473889973446622e-01
2.637348631860657600e-01
1.583482745533886793e-01
2.132722656858127841e-01
4.618494790146814022e-02
7.306747945726811688e-02
1.368843027423045644e-01
1.011459315848617785e-01
1.593665151826539061e-01
1.026346112966217139e-01
7.389024683437853125e-02
6.038222154131587388e-02
1.570517835355799974e-01
5.372830110930884584e-02
6.418904814872908315e-02
2.262682137497058488e-01
1.599654827085471576e-01
5.173674862527672530e-02
1.428846429805122886e-01
2.274805372532526238e-01
8.822324281003170177e-02
5.082678973634288666e-02
1.024873216870692549e-01
9.100437018159347746e-02
7.192684183317585300e-02
2.268028673301692583e-02
8.451318991895141741e-02
2.814828253940526714e-02
3.952900701047477178e-02
1.601910719165699770e-01
1.648312987489793380e-01
9.029853948859319079e-02
7.174028163006133940e-02
9.039080470891810992e-02
1.734752006898865884e-01
1.297030687641871072e-01
9.745712379605583897e-02
8.410368286797559323e-02
8.611107032488542201e-02
6.690394159443339983e-02
8.203132575662902548e-02
5.771952539122442161e-02
9.408388859394405113e-02
9.407754820127786632e-02
1.174669860186343395e-01
1.942586383100023961e-01
3.704608863300298122e-02
1.154303276723069038e-01
3.762172467164533185e-02
8.793897905744492427e-02
1.371719010199053401e-01
1.444417041433373461e-01
1.333703328649416264e-01
1.402332716931304311e-02
6.032513854114696095e-02
6.164070518847489938e-02
1.327271325446204020e-01
2.561721601311073987e-02
8.629777821181021380e-02
7.664445959632971983e-02
4.921101821186452813e-02
7.203806639350689156e-02
8.368375452445903084e-02
1.153784238982185663e-02
1.106965896885933470e-01
5.706571781351836570e-02
1.319046824778955795e-01
1.387399449883080782e-01
8.337909878852066414e-02
6.756577948287133262e-02
1.686037199890796923e-01
2.112205120543796111e-01
1.547883741192832563e-01
3.043856921242463903e-02
6.796348700877620497e-02
3.376840500582269089e-02
1.070386752956975218e-01
3.648170900685075019e-02
9.029908631607964919e-02
5.356510609591862843e-02
9.720494222932565820e-02
1.648530884323387569e-01
1.082032830899904430e-01
7.186363410245351357e-02
8.510802121542239418e-02
1.123763336593839035e-01
1.413903539807367660e-01
1.850200899449732164e-02
4.109997661373080563e-02
1.577064977954523994e-01
1.209963260253067163e-01
6.344545042924368272e-02
8.858159919274014027e-02
1.879191587176978415e-02
9.024989979206363144e-02
1.834046587569034548e-01
5.528075136863535438e-02
6.310795259444822169e-02
8.827653078912277296e-02
1.541058065841040270e-01
7.848981245318054079e-02
1.018763552745892836e-01
5.745524887097403638e-02
9.421527976732604892e-02
1.930149519198854913e-01
2.072181631999611695e-01
1.308823681522227333e-01
5.370295568539563275e-02
1.016475274111228316e-01
1.601189726392324431e-01
7.323112902712367034e-02
1.111140068823728566e-01
1.562127657515688661e-01
9.649672988535383522e-02
7.549282256431348592e-02
9.096823989000524247e-02
6.223853005617973472e-02
2.683690858465920259e-02
2.212307852315265055e-02
1.527940701472029206e-01
4.600481219040011144e-02
4.872899518234041771e-02
9.401649302504010153e-02
5.721312125514410596e-02
8.549796458646713448e-02
9.605417099158508609e-02
7.307946756048923354e-02
8.667758004547440609e-02
1.098331681569320178e-01
2.548280232371871734e-02
2.214467313416133842e-01
1.268359370006573728e-01
7.967520195605315436e-02
5.590768189657657761e-02
1.033017903665827894e-02
7.969204866779890095e-02
3.259025385917415502e-02
1.251725791423641543e-01
1.589138636265443327e-01
4.832810051834505322e-02
2.119253255849717077e-01
1.715446899765263045e-01
1.635544199018449940e-01
5.282709360355031247e-02
1.516010474691577570e-01
3.938273800671265867e-02
1.129253936568802019e-01
1.115170616497588585e-01
1.633844503070515930e-01
1.218251037979952017e-01
9.514751792085790472e-02
1.979177316423906541e-01
2.113213522587535365e-01
3.745774875664167197e-02
1.595438978922497641e-01
2.005643068346718572e-01
1.657560205308557522e-01
1.873495318241119312e-01
5.147922484392815357e-02
3.096082328822297516e-02
1.006616865531169830e-01
6.640917278793109779e-02
1.127580237902782029e-01
8.472876362877662659e-02
8.126381824164352619e-02
8.863923469952801615e-02
7.726146259572873320e-02
1.035133020849657581e-01
9.481087791024696287e-02
1.195088128269901906e-01
7.546722430532304404e-02
1.490319216299150762e-01
7.529939086992022690e-02
6.223585804912947633e-02
9.189512964928442385e-02
4.481890938496089355e-02
4.239656765700943603e-02
9.069792779711298436e-02
3.591141357797029282e-02
6.710683640251324800e-02
1.525722973721822251e-01
4.920672044770860870e-02
4.282646709063798324e-02
6.115236559832962215e-02
6.144573165489582156e-02
4.776520406534006530e-02
1.655834341914701191e-01
7.792736406161847318e-02
5.654375484865585555e-02
1.226228403155558561e-01
4.028214046379755692e-02
6.477233313155557337e-02
7.412150645493513490e-02
1.580422651971163106e-01
7.970632737551136549e-02
7.050631663250636616e-02
1.316297085182567272e-01
1.003547706775914650e-01
2.417025124081348050e-02
8.427399092332787944e-02
1.812339223950810152e-01
7.534191419332000872e-02
7.387634126613930319e-02
8.451271325175893634e-02
1.495903001545498823e-01
9.947093518659368139e-02
4.922918864281521784e-02
1.006070627653008059e-01
7.667179351782060781e-02
3.818687708358933092e-02
6.627318063682016702e-02
8.385983602623264810e-02
1.529138848700896391e-01
1.118528826106481994e-01
4.559181498022307766e-02
1.565390016554218389e-01
1.029327927322557790e-01
1.016500313231173680e-01
5.602851560587082669e-02
9.215187647515699076e-02
2.072639138092376709e-01
1.565597414853947267e-01
1.250909199458636323e-01
8.016742464373340094e-02
1.197924103569343451e-01
1.440073525522005959e-01
1.004135788391816997e-01
2.804835851657467433e-02
9.605377188242697484e-02
1.004123596136071578e-01
6.259590626230267241e-02
8.981989553944084992e-02
1.795373437494868496e-01
2.570791310895998577e-02
1.463652464350833141e-02
9.764479329472221247e-02
1.103286676153430179e-01
4.835751561048644287e-03
7.461890389329831064e-02
1.007218916718182339e-01
5.832843371655086623e-02
2.467043844271875688e-02
1.359969588926426831e-01
1.031795559768192427e-01
3.283014586400283957e-02
1.222118960514071428e-01
1.978251079195355588e-01
1.289757417324743916e-01
7.524336722191068971e-02
4.868249706080812061e-02
1.956317195124967767e-01
2.079212519024270234e-01
1.523322902176879046e-01
1.551292024030597738e-01
2.831853901244518398e-02
1.457720471165017406e-01
3.028696780138346867e-01
1.436714173918571813e-01
5.854998577457706105e-02
6.118513823869713847e-02
7.905253672323669933e-02
1.590042900790871461e-01
6.591265469934465271e-02
3.645926980094076758e-02
4.005479207210046327e-02
1.110834248990411055e-01
1.265153178880608908e-01
1.255700027973494226e-01
1.247694026581257221e-01
8.436033937984575848e-02
4.649488804408698217e-02
6.891695009037379638e-02
7.047701118665974929e-02
1.085334453286415646e-01
9.984196891409102825e-02
8.227493602332794365e-02
7.148441179373281329e-02
1.427055852375442579e-01
8.690076328279659756e-02
8.104347792120845939e-03
2.316886545494740157e-01
1.662826413887629751e-01
1.524717201726122906e-01
4.924859600480721578e-02
5.846065045701052260e-02
6.261750587017076396e-03
1.263202769825395866e-01
4.251311114451961776e-02
8.644512379553410952e-02
1.009053933699528005e-01
2.076425628337090490e-01
1.778058557299806441e-01
3.718905545898225362e-02
1.061625852646834595e-01
1.323508701612723104e-01
8.271718175101269721e-02
1.710172898519454199e-01
7.441898410646437256e-02
1.654439416525172735e-01
1.287054030064443688e-01
8.166607737107518805e-02
3.886162174256231616e-02
6.252977652937358188e-02
7.249284684634327292e-02
4.682035200362948818e-02
1.949883033252388168e-02
5.095840825651486161e-02
5.011188989634293017e-02
1.284361577712693318e-02
6.409948892131303588e-02
5.909629222654813607e-02
1.095888996464126769e-01
1.028740622751661005e-01
1.016408244945489342e-01
9.345013542083453750e-02
1.204962813923904363e-01
1.385301663221904234e-01
3.880477753639760552e-02
7.345347669360915988e-02
3.789790684562863166e-02
8.352760990218352499e-02
2.812395741908459840e-02
8.535454562052416372e-02
7.712157607268400883e-02
2.767159189816180073e-02
6.978430405801085146e-02
8.900243803768946582e-02
1.135943123827637263e-01
1.288519569772109304e-02
4.616732543279554457e-02
1.824724418283611704e-01
1.072520506536493723e-01
1.068647043802258417e-01
4.308119416850088312e-02
1.294800868311800357e-02
1.440387217846821333e-01
1.835621113081234990e-01
7.011596924719731838e-02
3.724558297373022075e-02
1.527642863079519964e-01
7.135791256578032093e-02
1.828426510445487624e-02
7.960418787296437426e-02
1.223837672481165734e-01
1.966209459978636165e-01
1.191983346850975650e-01
7.840575535423971454e-03
5.402673400419995969e-02
8.154504568156920041e-02
1.652057906948084243e-01
1.432418607830279224e-02
7.635884684598630290e-02
1.398086203770066704e-01
5.214718420497502921e-02
1.035196943005642911e-01
1.179114125541480401e-01
1.288547733642690096e-01
1.121944245471729190e-01
4.579006934813809049e-02
1.816136197250604531e-02
4.589533559492560422e-02
1.525599543827950988e-01
1.736820412753276588e-01
5.088065986556009057e-02
2.500097587677831135e-02
8.406084089518572888e-02
1.308817349227253124e-01
5.988238585493790150e-02
4.009079249684766727e-02
9.633829479527025730e-02
1.049395438593169333e-01
1.073481854738643354e-01
8.762469849706011615e-02
8.142461668201611547e-02
1.762858561174666383e-01
9.808219081239140380e-02
9.277644373834231795e-02
1.296778368596046283e-01
1.196329249135129891e-01
4.861180722474589544e-02
3.943320781254763818e-02
2.909391460676713156e-02
4.040113120825094412e-02
1.376835360420666961e-02
5.163226282101789077e-02
1.196312471683475542e-01
1.260755028057465588e-01
1.921681917369920944e-01
1.273582464252187851e-01
7.848783806876304114e-02
1.221461470939611271e-01
4.866414736521273293e-02
4.960048497186365229e-02
9.111557071028983379e-02
2.063627024475935337e-02
7.889854175991453666e-02
5.858207847088332115e-02
3.573324481068440583e-02
6.632527970677208617e-02
1.199057698516642484e-01
1.292565664897841159e-02
1.034949824023407572e-01
1.140195418718874532e-01
8.383776366369799504e-02
7.049385631802826402e-02
6.721027075500592141e-02
6.199082386806455819e-02
5.371205678652349325e-02
1.208999692044602191e-02
1.259578056323491790e-01
1.102118156661511528e-01
4.817649507594295999e-02
7.042518694644953059e-02
9.685529497944884991e-02
1.246482060897866756e-01
3.719516598540827806e-02
4.052401201392247243e-02
1.062804453116688620e-02
4.849028360318930614e-02
4.923543625587187972e-02
1.098691944127048042e-01
6.787548279071935198e-02
1.081862759523366802e-01
7.807841440243075415e-02
2.781864922537039334e-02
3.235746018126274548e-02
9.418959637419756226e-02
3.497446424871543391e-02
1.648530984330151203e-02
1.965471766849511900e-02
1.248508284364749366e-02
1.684815531699537100e-02
3.102894808968771623e-02
6.288225916198594834e-02
6.772862514703274772e-02
9.768520178131250009e-02
4.599671051450424097e-02
7.892428587154555475e-02
5.179313303351793657e-02
6.774331529259010332e-02
1.210421522059521166e-01
6.405757659047407737e-02
8.317688724835034519e-02
6.252713219241586018e-02
3.336448033885339864e-02
1.533243267151483333e-02
1.075433444241531838e-01
4.064721614554114848e-02
1.739096084564033251e-02
1.028313304190188460e-01
9.959721278619346196e-02
1.502374818817796276e-01
9.370213943478850060e-02
4.862302541111099274e-02
1.127859977575113373e-02
9.905376967621554174e-02
7.893958484304799961e-02
3.088849949236455866e-02
8.928639800457915596e-03
6.224618695611188607e-02
5.631677123375943006e-02
2.449498849552386379e-02
4.207481969288486001e-02
7.827461310069378994e-03
6.827659978521853634e-02
7.177281085547773665e-02
8.652948145257136070e-02
3.312098489101549664e-02
7.208178459663443227e-02
4.486123655073062655e-02
1.137345984449477168e-02
4.923255590455666991e-02
4.205573056982696289e-02
5.654295885155939672e-02
9.121365344516024765e-02
6.240015092786182355e-02
4.475877436843883617e-02
4.031693785278930853e-02
5.888931694032478042e-02
5.341861094503211338e-02
6.021613374409082176e-02
1.345533193066048849e-01
1.428023962707908878e-01
1.060313534491642146e-01
3.463406997821050215e-02
1.639167054426676762e-02
2.361358953789201645e-02
1.840844060116139311e-02
4.908324272698981472e-02
1.056599189510237652e-01
2.976634750468497986e-02
5.286924276872093792e-02
5.228549033625634612e-02
3.998845271391531647e-02
6.847094545814859379e-02
2.109246919130077294e-02
5.079224811565607317e-02
6.531355910737940418e-02
2.780632042465559783e-02
7.306818058664823297e-04
4.792206584076049575e-02
4.009564169400130218e-02
4.880087130041868559e-02
3.660884157954457513e-02
2.312861582745003725e-02
2.371941481239458679e-02
5.477038300567764299e-03
4.774115464715836255e-02
6.496613122978502075e-02
2.415139464346205758e-02
4.494000424010988898e-02
3.658895592753910048e-02
6.253483415369727461e-02
5.082521406243487028e-02
8.605997531101203246e-02
4.638868062809083093e-02
6.473782320846266369e-02
3.560895999180697241e-02
8.175674756068226912e-02
4.489181129996831082e-02
3.798824633401975265e-02
5.762418514183471202e-02
3.811989443125743393e-02
1.796976344731185740e-02
5.868436839039785358e-02
3.965967808347402312e-02
1.955989540794115730e-02
5.650219025798762507e-02
7.352197189619782969e-02
7.694506063454227551e-02
1.588979941948060262e-02
7.515866641614163401e-02
7.823623396120694962e-02
8.366290242080058615e-02
3.409994426879922602e-02
3.777122913476638200e-02
3.344965563914441276e-02
6.955645893187568929e-02
3.918202036516128112e-02
5.499796907986025107e-02
3.218466531309410739e-02
6.973484370612328953e-02
3.406720938863978115e-02
5.575616975947651766e-02
4.547941485733193040e-02
2.879331375466753079e-02
5.190435958260538468e-02
3.289134772835296261e-02
5.862647729337612523e-02
6.202328104207949916e-02
2.821100052551871185e-02
4.182051527449904410e-02
3.401352071643760216e-02
5.585802185915916818e-02
6.363581663916063891e-02
1.985895909329172745e-02
2.605892996413913809e-02
3.046277672185186691e-02
3.426743264573416797e-02
6.514207237845914822e-02
5.121829632766175533e-02
3.108929115155971423e-02
6.171393943802864351e-02
3.055755914487470748e-02
1.264260183470798833e-02
5.509201040217325679e-02
8.694397688177398290e-03
3.964600114567458367e-02
8.844506751491749280e-03
8.476957465118042934e-02
6.206944249722291806e-02
2.169698081374146770e-02
6.966479099992446689e-02
6.707158583708794364e-02
5.700700239608547104e-02
8.132133171230934710e-02
1.273136645396282483e-02
1.573592951041324559e-02
8.135000365586595589e-03
6.069196691086527207e-02
7.270105074616863006e-02
4.538386932690542663e-02
6.530252504980267603e-02
8.505557871743893439e-02
6.572759588252263807e-02
6.835754101863278365e-02
3.263937235022489058e-02
4.596592502919731940e-03
6.000537529172830786e-02
6.214567924028367718e-02
9.583582564585376926e-03
2.293512301146664531e-02
7.828510182822565056e-02
3.194510492955546233e-02
3.685159469913065755e-02
7.027302391066019005e-02
4.241215475119098494e-02
3.796115966253599955e-02
4.098241433069307188e-02
1.437589914416395609e-02
6.481764673542218802e-02
5.342950388994868738e-02
3.733512717230784428e-02
2.786233514376615025e-02
4.382067078888383926e-02
2.652725551315555930e-02
2.805181249525581788e-02
1.309340000563475812e-02
1.172735938300954392e-02
3.844438005557423294e-02
5.364018128890329223e-02
1.458898530110127462e-02
2.511531844466218313e-02
1.649076390570170664e-02
3.510892234730554617e-02
4.712921682526594741e-02
4.165274053412592464e-02
3.587983682234218569e-02
4.945205091245285373e-02
5.343103737217676230e-02
4.484254025517479120e-02
1.987449396230030196e-02
1.386368630501259337e-02
4.346809388243649125e-02
1.462954965666549145e-02
6.621585993940685977e-02
4.558182220437126397e-02
5.113293858383975710e-02
2.733115739586787496e-02
1.702835831440726796e-02
1.800276984059109853e-02
5.412552031549681952e-02
1.220371420571993333e-02
3.908826506614616891e-02
2.710057599030967976e-02
5.553469062439686521e-02
4.035151532886742387e-02
4.712120114807527571e-02
3.919104099896084104e-02
1.617397795401199351e-02
7.517408284123978934e-02
3.897942385730249204e-02
2.659478188376548577e-02
3.269272134328325696e-02
5.048659053442055428e-02
4.035301815795054592e-02
1.627146545101991817e-02
1.836744459525620904e-02
2.354403098156520116e-02
1.134920135822054671e-02
1.358072549494309181e-02
2.629781128862740402e-02
3.594161289430208156e-02
4.444164541381007139e-02
3.117760451012505790e-02
6.243486700676752210e-02
4.950077987462683099e-02
4.860331417762592254e-02
3.727374783092193139e-02
4.277000379317066892e-02
3.932107746065611337e-02
6.466010106221675713e-02
3.889118983443412558e-02
2.645534154042713040e-02
4.337064719162812138e-02
7.450635976796099458e-02
5.829148366037512075e-02
5.974828245898068657e-02
4.988080673713646274e-02
2.285930812923788608e-02
8.936231151290418770e-03
3.369252877076962804e-02
4.600443554087971926e-02
2.341997202852288615e-02
1.992304470679553269e-02
9.906659256330494975e-03
6.662934601084982700e-02
3.946821053544370683e-02
2.832291691504902273e-02
3.587008808090860756e-02
1.016495445869043321e-02
1.600678819794888741e-02
4.068950122220270360e-02
4.013085392409692503e-02
5.291264286255541183e-02
4.712446098656671023e-02
1.778620228151350791e-02
4.008114593296992906e-02
3.338544412125142580e-02
3.907253080107601223e-02
4.460098393796837341e-02
4.757815577792461059e-02
3.792302207965882188e-02
3.423496678078948030e-02
3.415234872727270637e-02
1.265447739461960687e-02
2.848992595984692344e-02
4.829366231894872963e-02
7.789485138473209447e-02
1.137725400264530395e-01
6.311754943391330308e-02
1.146068050484717708e-02
4.634617420370141377e-02
3.189329282780187236e-02
3.600661027506915635e-02
4.006305891754395609e-02
3.201252055933893892e-02
5.028853020590832307e-02
3.951713165109317638e-02
3.043452369089076973e-02
2.707864405750899303e-02
2.420870791357874335e-02
5.178814364071443466e-02
2.178237940743914941e-02
5.017815144359703827e-02
8.990755609145873947e-03
3.379038379354940697e-02
5.800042398535500826e-02
6.145455316424675712e-02
4.001054101557893761e-02
3.219020369219367100e-02
3.311794252562278579e-02
1.159398886010224068e-02
3.298102315181634242e-02
5.620869819950332497e-02
8.343186153664732679e-03
3.368075314158458511e-02
3.099333718401259263e-02
9.014995132591215390e-03
2.720796729152329813e-02
2.909126047148341554e-02
1.471349315687323599e-02
4.407385618570043573e-02
1.055877676527019506e-02
1.364225297233352327e-02
2.321061973296156822e-02
5.772085858668394437e-02
5.720737420375757859e-02
4.127030244335989917e-02
4.341114487897788227e-02
2.323734105495389377e-02
1.537312906056935609e-02
6.390463884159978958e-02
1.056150282892857721e-02
1.851512216428385232e-02
2.674548804781746308e-02
2.516571192863247680e-02
4.387676418561537589e-02
4.423705971943044102e-02
5.421402664875387030e-03
1.904208829934792013e-02
5.436465963828419901e-02
2.308915411958552960e-02
3.613733641763088034e-02
2.945893854018011640e-02
2.765071962044444304e-02
2.094602483935548501e-02
1.367057189554437072e-02
1.938376774895927968e-02
2.660435921301565823e-02
2.453401152973027841e-02
6.163545444364534887e-02
6.253709207962326877e-02
2.593078039886903899e-02
1.377952195916032872e-02
4.903052995392868235e-02
3.263117655355895347e-02
5.626851033362619686e-02
2.281435658469231284e-02
5.099932643329904008e-02
5.138333234044556441e-02
5.191646953889275662e-02
6.360605799663032918e-03
2.734689735405500602e-02
2.763416846692835077e-02
3.775699916778495896e-02
5.628069886863350246e-02
5.714099352267072024e-02
2.067199513959388363e-02
2.569547108842279437e-02
2.938513736456048811e-02
6.972796546949940055e-03
4.141409042948916708e-02
7.559382985595962390e-03
3.459911367824166500e-02
3.032209521949255984e-02
5.206596042220981713e-02
4.411573017242358119e-02
5.002160049404161257e-02
6.254330971398949779e-02
2.862550399098516551e-02
2.023180644938282410e-02
2.279720513898137943e-02
2.070702132521123895e-02
3.251039657211016870e-02
1.963677407364771907e-02
1.968773314458067969e-02
3.223710916400239490e-02
4.946994552390224925e-02
3.905373765676278808e-02
3.220014725985757831e-02
4.065920223643589709e-02
2.169744379069829532e-02
3.366453334910466527e-02
2.597556873601694280e-02
3.074311867657219741e-02
3.416910745230583579e-02
4.466939185915042715e-02
3.057846616783963661e-02
1.830198113327655141e-02
1.879766413108584569e-02
3.255622584059382485e-02
3.973358723344840027e-02
7.207973401383378775e-02
1.862080573836310052e-02
6.344164012347022763e-02
5.717330895555066544e-02
8.016477205051956989e-02
4.189043854217888024e-02
1.148251098678894008e-02
3.383594424188618444e-02
8.824135944403226073e-03
4.786361415347075571e-02
1.307817507970879603e-02
1.084587770609640733e-02
2.537173852502202717e-02
2.731320851199459110e-02
4.864672260277162763e-02
4.126573760344649788e-02
1.911607032255756983e-02
3.042545207869051110e-02
2.889804469637590606e-02
5.089413979307273045e-02
3.719592535981023490e-02
2.746014476728535908e-02
5.173433005663449769e-02
8.076617866395095768e-02
5.948142958624418053e-02
6.181060684596128424e-02
4.305952517475859775e-02
1.527621325280312248e-02
9.207094415305691615e-03
9.482694011366843076e-03
1.871014182541386531e-02
2.320253363973186905e-02
1.786123598179585603e-02
3.187630722658079535e-02
5.071076147601322540e-03
6.027149595716813774e-02
1.497735281436490297e-02
4.017271503692638329e-02
1.500719799574873337e-02
2.524179021174236329e-02
3.414617044852548411e-02
3.795048353179808487e-02
5.687423035490079409e-02
4.403549970244210326e-02
3.422586603325164512e-02
1.648698334827995715e-02
3.264168530751287295e-02
8.155280139560724950e-03
1.493962709165439287e-02
2.405204694959484427e-02
3.145079515294967737e-02
1.406153524469850626e-02
2.766812972529826206e-02
6.630524638717738561e-02
1.461616804889588270e-02
3.004455951139079276e-02
2.922007116856315326e-02
4.150609166052623977e-02
5.158308399177543441e-02
4.360409136753796294e-02
2.029800877084471378e-02
3.013463624602090440e-02
2.048174754922114232e-02
9.635230306609926521e-03
1.998905587813905663e-02
8.820446722030040806e-03
3.481453374345607615e-02
3.336866961416010829e-02
4.619808587414357681e-02
3.094827880953997593e-02
1.436832426337609353e-02
5.818808663383892577e-02
3.091570356196200742e-02
1.358674179128202368e-02
1.425085294337915219e-02
1.538043571318008923e-02
2.084557485617942810e-02
6.111301556095868892e-02
3.938291091965601814e-02
3.404152536995509043e-02
4.188249202879153893e-02
2.486945188214220726e-02
1.967108124323242030e-02
1.459489692521760522e-02
1.389130438301605479e-02
2.868450533938068231e-02
4.657705006737338643e-02
6.754351647304342177e-02
5.346840918670325155e-02
3.077474859425068099e-02
1.035249016135649479e-02
2.236181424595979489e-02
2.842026815481960358e-02
3.605478205101129291e-02
4.385443085381181272e-02
3.411909276598293350e-02
5.556450428085686621e-02
5.365893965254352888e-02
4.923471617789215021e-02
4.405690466642982889e-02
3.061133097959588961e-02
1.376493287675480300e-02
1.337178565842537734e-02
3.645434594292822333e-03
9.945047006510011542e-03
5.733480779513477205e-02
1.974083634765966266e-02
9.946469525701266690e-03
1.573087272962710170e-02
7.943643461542540529e-03
1.148488598559008547e-02
3.041398309330788433e-02
2.239191938888657543e-02
5.731346968228082789e-02
5.625378524568669381e-02
9.975274125321020174e-03
2.105961884053614980e-02
7.866538225074297050e-03
2.199999112327210432e-02
3.052613620544445544e-02
5.032899296433298447e-02
3.863269925044086894e-02
3.721429672904560948e-02
4.582903666229930922e-02
3.131093541925772383e-02
1.982718793213498337e-02
2.390814186413075734e-03
8.862735189698801863e-03
2.738373806840370406e-02
9.409484895610430513e-03
1.806751421305008432e-02
5.818043979919684111e-02
1.842707363162741571e-02
2.437689610095976345e-02
2.798621512269176131e-02
1.430327101922450675e-02
1.117717698598338048e-02
2.214167143438519614e-02
8.931508331522303862e-03
4.791391797158597171e-02
1.993093768172880462e-02
4.732335359741570574e-02
8.157687651178462118e-03
7.901657424671837057e-03
1.620765255402811106e-02
1.772053822986139129e-02
2.773818187149691694e-02
3.422892688914917769e-02
4.550927592774352964e-02
3.816509762840817471e-02
9.172758383000034071e-03
2.292610585645632817e-02
2.152329770963236702e-02
1.801134410226514632e-02
5.244433087840226493e-02
4.576364410029895580e-02
3.387790448995210701e-02
4.951805699241033226e-02
5.157361849841648332e-02
1.451414832337530152e-02
7.087588708044702430e-03
2.274175515500181932e-02
4.055189029294700015e-02
4.790044154292157075e-02
4.895872292523949232e-02
4.236169690632159840e-02
4.316983618697864400e-02
4.740975507070618183e-02
2.704366894347237996e-02
5.047054134897255295e-02
1.977068648428537134e-02
1.298460541051699342e-02
1.536230944049773832e-02
3.378484209064651356e-02
2.959278340343426614e-02
4.302866935473010496e-02
1.544831127944700649e-02
3.793811171270114468e-02
3.143783695136637135e-02
2.382372502930932279e-02
4.190428070926147282e-03
2.530058987206221938e-02
4.349386088170906217e-02
3.842868454360594266e-02
4.632568788978976872e-03
3.791037896567301529e-02
7.988390929961350709e-03
2.109064486718987066e-02
1.314768839537555634e-02
3.291679764445940622e-03
1.826019021776131498e-02
3.266560231436103738e-03
2.371517368218362121e-02
2.747585681656013190e-02
3.516188024671887402e-02
3.619936155196393918e-02
3.261123098382695540e-02
2.977530399537551761e-02
3.026048024787838381e-02
4.606021781710591297e-03
1.207953073158709017e-03
4.131805269448676071e-02
3.439091604951405312e-02
2.097108104437593948e-02
2.445550301002509183e-02
2.454508814051427346e-02
1.146710106130648457e-02
2.269010323467960527e-02
5.081281688517665096e-02
6.334289321545033546e-02
5.140691372680195742e-02
1.275409737007364951e-02
6.048254281976059993e-02
3.560406747948071521e-02
6.756178712022993353e-03
1.113968383372718023e-02
3.887783844408635586e-02
5.939449283865834428e-02
1.791600375892297980e-02
4.554629827441030593e-02
2.848479350775139779e-02
5.803752321629462169e-02
4.895852263027639789e-02
1.293923611924606074e-02
3.931761006390761121e-02
1.475846013828636602e-02
2.391815527741133346e-02
2.076933887555828737e-02
3.452673019680788796e-02
9.328621612546848796e-03
6.820576638040062867e-02
3.880183407491709369e-02
1.611513146721605186e-02
4.061220045104622922e-02
6.059943597064934746e-03
3.405961446218713773e-02
4.080495286623841977e-02
2.301578853657882881e-02
1.459151582896228184e-02
2.535642786572739685e-02
2.834365117856482014e-02
2.612026281225773502e-02
1.500426965779495456e-02
2.952865344116957155e-02
3.001657266023532999e-02
2.845674458020983760e-02
2.641744264483538232e-02
5.050785535348707722e-02
3.662625324078808142e-02
1.360762821231767568e-02
4.674074809724369090e-02
2.626989325443085388e-02
2.451824436388579109e-02
1.659350500394748962e-02
1.954080817161385139e-02
4.112123006114059426e-02
2.523948670204546885e-02
4.217517903225896647e-02
3.230146930028718333e-02
5.946326151725973841e-02
3.398354826751794761e-02
3.583893678981187048e-02
4.467358902416589117e-02
3.204594746382982695e-02
3.889736865382893705e-02
1.317704050460263496e-02
3.627079763516130595e-02
5.566592965593396281e-02
4.044865053122551762e-02
9.853326391510729143e-03
3.008247163100045279e-02
3.143787929572311457e-02
2.203336576085197784e-02
1.651506985448807086e-02
3.900298080513652649e-02
2.658358402136568391e-02
4.731048238706696621e-03
3.446303618032305754e-02
1.976826936008094573e-02
7.200069231850523936e-03
5.148526756253068472e-03
4.666764862798244637e-03
8.654095842644534547e-03
3.924262689903063733e-02
2.585713549127752198e-02
3.287928309908170338e-02
3.713043973979347073e-02
4.837168756039542800e-02
1.281129963927339285e-02
1.267582366625345271e-02
2.289105897946792229e-02
4.448208792990615557e-02
1.542827695782600199e-02
1.748671260135442607e-02
2.036774772456340435e-02
3.329572432576954205e-02
3.069680382696859944e-02
3.308275026507177807e-02
1.426323302399174105e-02
3.599120007257511356e-02
4.100335546664934938e-02
3.404991725668578273e-02
1.553553745945294821e-02
9.259183481920608277e-03
2.769462045297304414e-02
4.087837726327629706e-02
3.187150273374835668e-02
2.851684926731728673e-02
1.233084019543286697e-02
2.619216240385271663e-02
1.168945504588696921e-02
3.837041074545242264e-02
1.362212883751822909e-02
1.511224224025485216e-02
8.204317432468046650e-03
3.447237035703128172e-02
1.493611961486732490e-02
4.471193284779998584e-02
1.881874606783058568e-02
2.771201452823481362e-02
1.074237486305895314e-02
4.473740843836813280e-02
1.407288950681663715e-02
1.906732291657894235e-02
3.505985289121058696e-02
4.191135217452506695e-02
1.212121220119117236e-02
4.713997094443670571e-02
1.481758930752002587e-02
2.822532145844930049e-02
9.218804186177875781e-03
9.324605616258956758e-03
1.599212179926892338e-02
7.297540370235556552e-03
2.194861596754334176e-02
2.155395685198937747e-02
3.067634508023365028e-02
2.295777193193725835e-02
4.308919485443064856e-02
1.441449829241899135e-02
1.764797498994433861e-02
4.788692559594381198e-02
2.709376639069425302e-02
2.593188681715331498e-02
6.919174576889164201e-03
2.719607615129243303e-02
3.893525694334075415e-02
5.325338101331195118e-02
5.246376172594451742e-02
2.565000772379123425e-02
1.386429875210553643e-02
1.666506461754341598e-02
7.714646615821663979e-03
3.333797436344174830e-02
7.662995442582938750e-03
1.861124063539386364e-02
1.365367684236013998e-02
2.669093587095189637e-02
4.967545678538369883e-03
1.612500983569206681e-02
2.499057802753817947e-02
4.061221777264013844e-02
2.014943610240388372e-02
4.380410596130989570e-02
3.666063085381021658e-02
3.587564511986295751e-02
2.870911621534203220e-02
2.268816672587202141e-02
4.216332061676471288e-02
1.569646938444112932e-02
1.844087064044025448e-02
1.432923071900746130e-02
1.561449111032421275e-02
4.660321194293477742e-02
5.246992804736551330e-02
4.159629461633446157e-02
3.612432917343671307e-02
2.194835916838110482e-02
1.862506775938248954e-02
1.774792321228859174e-02
1.948659166529885869e-02
2.549133974519467161e-02
2.058519869472382954e-02
1.465511728694248589e-02
1.269712018893407075e-02
4.337092482343785083e-02
3.266038638311239556e-02
2.021333614827957800e-02
3.640674922800724023e-02
2.946428176036853391e-02
4.596797956853624495e-02
1.825414385189198102e-02
2.444495914326742445e-02
5.266244344347401074e-02
2.719938101403599623e-02
2.653535346987673585e-02
3.085092248040257126e-02
3.935191046015885930e-02
4.228708801622975411e-02
1.901981727132070685e-02
2.764579958978894900e-02
1.691959182197880218e-02
1.816552425380542693e-02
1.024278579335817334e-02
1.618270765422670857e-02
1.320148405427921945e-02
4.742515496603633834e-02
3.960379042669642108e-02
4.265138160860954680e-02
3.269281719021268490e-02
1.638457883773837206e-02
7.257617082597903405e-03
2.125754349723128073e-02
4.395853635316561425e-03
3.456760972500597801e-02
1.092159121783232295e-02
1.059144299977612426e-02
6.618077863445279672e-03
2.685281208951855944e-02
1.726737558726136948e-02
1.872512815558564567e-02
2.769600251671379756e-02
1.694693991441526340e-02
2.353791293184207337e-02
1.833875603876231400e-02
2.150538758454859437e-02
2.591339996319207487e-02
5.174155056770349953e-02
2.072478140645029818e-02
1.595247646125887153e-02
3.983476997825540628e-02
2.692573400185465857e-02
6.121258371215755265e-03
1.552609471382243589e-02
1.558011006857555267e-02
2.422643761296788822e-02
9.870634967759497197e-03
7.855571932079962252e-03
2.776316336887653738e-02
9.943384544232741762e-03
1.213907947574215107e-02
2.509154675925473477e-02
3.445973050232854773e-02
2.963003819728944957e-02
1.314216246234975807e-02
7.642474012914068048e-03
1.203592939309804100e-02
1.056001543310529367e-02
2.964112169739607002e-03
1.030515084962154403e-02
2.522112446433031133e-02
2.170895756170322308e-02
2.539801419962765816e-02
6.026520386172602196e-03
1.811618312613698378e-02
1.897701449461800319e-02
4.393778164402463958e-03
1.752030105387969439e-02
7.928425020363337114e-03
1.066036704177244186e-02
8.977710398734257274e-03
2.614058253468874368e-02
2.134225960146878334e-02
2.298570077597996905e-02
2.345073570092564078e-02
4.768863414944136958e-02
2.814903099016197868e-02
1.396685471781423417e-02
2.456596711773195718e-02
8.957392731015260262e-03
5.945615677712969525e-03
3.065294715772410444e-02
1.322206512051308375e-02
3.380631109515438212e-03
2.056803971380906371e-02
2.031020600691644390e-02
1.121252922045811763e-02
1.804872387005754600e-02
2.520938403596841362e-02
1.722681463494311199e-02
4.095060158825743202e-02
1.998525688712185847e-02
1.897356226089411124e-02
4.083634223415640030e-02
2.194318810608532691e-02
2.411256450489390746e-02
2.009926476239493748e-02
1.872306968298573238e-02
1.569375461805017427e-02
2.097355562293096165e-02
2.136652737471050889e-02
1.749231473527713271e-02
1.662295376360654192e-02
2.825578442578893790e-02
2.426061079434195175e-02
2.801653466604284853e-02
1.423767437162218839e-02
2.252086703566090128e-02
5.093620829700332836e-03
1.763763711655049263e-02
2.376364842730725388e-02
9.743995005301826773e-03
1.308958201709552530e-02
2.937662410148840150e-02
2.592405966335682710e-02
7.096621752236625426e-03
1.601076228976817950e-02
1.218491553095242368e-02
3.773358827452029385e-02
2.382346113633571766e-02
1.262487302644443692e-02
2.094458493826532527e-02
4.352130362485633758e-02
2.784405834569637569e-02
3.454031246993052862e-02
3.307910576402276620e-02
2.054814675307569879e-02
2.223863802635775086e-02
2.568397230840134202e-02
3.117238892010536656e-03
7.068039943302103882e-04
1.856059019468384377e-02
1.459187018873811005e-02
1.274933321594538989e-02
2.183889897739399108e-02
1.517425936129413594e-02
3.047947320028299503e-02
1.476046912897289835e-02
1.696516859082918688e-02
2.610726935329947887e-02
1.555699902297549841e-02
1.286289938136009510e-02
7.022858895560449462e-03
3.862280194683946535e-03
1.579107474018755577e-02
9.091848544247767977e-03
1.734882131189172810e-02
1.682376866074708141e-02
1.789378814854421934e-02
2.407787453242863154e-02
3.040135232977029048e-02
1.625193887344989277e-02
1.621575034596679440e-02
1.583954161916025297e-02
2.254829022150904930e-02
1.658890736985699915e-02
1.687362823699575104e-02
1.072897076369394229e-02
2.767785909504575856e-02
2.278669900835928602e-02
1.850856872220422999e-02
1.802740234396353267e-02
2.084183661517368530e-02
1.719948302415841290e-02
1.021353626447001582e-02
8.515857674119524032e-03
2.925192324277273159e-02
1.241826602610665228e-02
2.798259483377860124e-02
1.736031139664473075e-02
7.361850247433178625e-03
1.822435488742980489e-02
2.311953748360734417e-02
2.260016165674202937e-02
2.169579737736846911e-02
5.267835072535706487e-02
2.123655393586160525e-02
2.436957313756876742e-02
2.594292197730289906e-02
1.218190004627370607e-02
2.968253217376478140e-02
1.856253951520211998e-02
2.818394978165896306e-02
1.709653861224186971e-02
2.884808949003222350e-02
1.257332978203212770e-02
1.766303344736161809e-02
8.162573486174580853e-03
1.678930891846659029e-02
2.548492731854544793e-02
1.050535731295989227e-02
3.994661555995102087e-02
1.631200253263679484e-02
6.717294133679990210e-03
1.190926927102097833e-02
2.058202234708462336e-02
5.114704107077286573e-03
3.798345627419902337e-03
1.681845676927115618e-02
1.036034770158094157e-02
9.356922677993649226e-03
1.757723937869266895e-02
1.757565032769653479e-02
1.902811328836486252e-02
2.088776592425575090e-02
1.513265480603650549e-02
2.248688986184356822e-02
2.681471662238512493e-02
2.031041586396725371e-02
1.559648125681143555e-02
2.016000786721114033e-02
2.746467424920656306e-02
1.868472304917009191e-02
9.971696517079433469e-03
1.222557745135184441e-02
2.235241114530578041e-02
1.313711936494086317e-02
9.154162948681059467e-03
2.669452719561055815e-02
2.600462063195260395e-02
2.849273296785502160e-02
9.427137082939766530e-03
2.063328206702474271e-02
1.154051679232643429e-02
3.212294835923034525e-02
3.516568466588979730e-02
2.697334182697059407e-02
3.365671385309276092e-02
1.731340053104444068e-02
1.328253166882521069e-02
2.022525992856393992e-02
1.383934342980222033e-02
1.836748377037346336e-02
3.239928811050443030e-02
1.461818807809680924e-02
1.490154533637473924e-02
2.368442827534279066e-02
2.877183233541966839e-02
1.985974136477752436e-02
1.152101123021933606e-02
1.716065905666451855e-02
1.348113435111069833e-02
7.573712820309000220e-03
2.834696162887750427e-03
1.169266799393592175e-02
7.486924253361949312e-03
1.734314760990740903e-02
1.796413617000996304e-02
1.977811162354498400e-02
1.188123867269798295e-02
7.880175449044578978e-03
1.464960073954688427e-02
1.280426270964124015e-02
1.270091279787746892e-03
5.820940745998193049e-03
2.052830517501405896e-02
2.402259319715802782e-02
1.382323240176903251e-02
6.929137196130957972e-03
2.035894582888854790e-02
1.949041578963815746e-02
3.566482056424479831e-03
1.983514537723102614e-02
1.872947718134570019e-02
1.130719228064881211e-02
1.678061836033160198e-02
1.858558521119448720e-02
5.444741851832728824e-03
4.524706419576490606e-03
9.506054616504977170e-03
1.260040663143865806e-02
2.171373772012726022e-02
1.167037226685687691e-02
2.174433693507734494e-02
4.434939194175633627e-03
3.545480614865617348e-03
1.108546870939492238e-02
1.741578698865211064e-02
2.794128605909405177e-02
4.754868216061529547e-03
1.879948151325041769e-02
8.604171286949600234e-03
1.724655496599829599e-02
3.365594880749797624e-02
7.570571308325891625e-03
1.157962651607741082e-02
2.317203222891483713e-02
2.598028857237586614e-02
1.797357072653730028e-02
5.460993851167995385e-03
1.484715396756492757e-02
3.797554259493713703e-03
2.568442559538574102e-02
2.393963219833450048e-02
2.219251748026403528e-02
4.898531192077681257e-03
9.137059766160126120e-03
2.827052855673962278e-02
3.059725118165819088e-02
3.217877592955239313e-02
1.566610871353002477e-02
2.861694612494352155e-02
1.444457110496996655e-02
1.269208661985427207e-02
2.948266474844148805e-02
2.589647937177216950e-03
1.080011454753576280e-02
1.510967386466973567e-02
1.707805904563946056e-02
9.218079213523230897e-03
1.984647941177367786e-02
1.648225999542534195e-02
1.869000434951248804e-02
2.066808564297485662e-02
7.719403151269554723e-03
1.015898302534772903e-02
3.797521174768799575e-03
1.436447124366811191e-02
1.295597620454277260e-02
2.355270492282428990e-02
2.435339811476684713e-02
4.512822454443702822e-03
1.245158816817249284e-02
1.022401740374561004e-02
1.114996781921526008e-02
1.965840441373675057e-02
7.891145963182964393e-03
1.329046326767197028e-02
2.285635951499600735e-02
7.637019588366650638e-03
1.532915696035751230e-02
1.848070463504525307e-02
9.612998516786033440e-03
2.020454548303960568e-02
6.176363417098973234e-03
1.445320530353081008e-02
2.163478342116174208e-02
3.664803696651423512e-03
1.749786331778682702e-02
2.933256102838134247e-02
1.398425812027716264e-02
1.750526901588956435e-02
3.024581462564253538e-03
1.093656663600555204e-02
1.182647968860225940e-02
5.376530861243371782e-03
1.801302346050193473e-02
7.905898512073327930e-03
8.488787669333940078e-03
1.621747344715087497e-02
5.328397139138676616e-03
1.320568463681278185e-02
1.696025255435338122e-02
6.113788526830405898e-03
1.148545610195927068e-02
1.678571695740592104e-02
2.231735641581518090e-02
2.517661176518178404e-02
9.182477520605875770e-03
2.583394544412306176e-02
1.038713918760099560e-02
1.696972588460921028e-02
6.657927837737037842e-03
1.902863638193599176e-03
8.036462114596347461e-03
1.372684448664313397e-02
3.602546954711295137e-03
7.472131996540837609e-03
1.315517550451034481e-02
7.613500575583740868e-03
9.757675765852298622e-03
1.746078944785140613e-02
2.742533531223086476e-02
2.610412039739371665e-02
5.590422625049307724e-03
1.788611820361164437e-02
3.904935770843837983e-03
1.879735182832925622e-02
2.918557687584975857e-02
1.575254314646080608e-02
1.607311371085812929e-02
1.183755473863685667e-02
1.314362093637828389e-02
5.175487999243185908e-03
1.459105571899239895e-02
1.213333673040728304e-02
1.295196883773961326e-03
1.329747012942046960e-02
2.284609970497017070e-02
1.106007793780733675e-02
2.455323554092592522e-02
2.410260761254155726e-02
1.181473000606898631e-02
1.344185167519546670e-02
1.672900317272421264e-02
8.655330781382350458e-03
1.681163760294420578e-02
1.138929312636652660e-02
1.526350492155216856e-02
1.857950232762626067e-02
1.804143699804269807e-02
1.780925841060607921e-03
7.135557533549477006e-03
3.385528566306167820e-03
1.866728047443221711e-02
3.420882018182665532e-03
1.032536559609621360e-02
2.459135842740377276e-02
6.514616145184367983e-03
1.630595167664992962e-02
1.599274358914888616e-02
2.353439710350796119e-02
8.647021864863021004e-03
9.745175454289574726e-03
9.871642069537972519e-03
9.972148061561672550e-03
1.913436414278965950e-02
1.501777428823564305e-02
6.449838571008877607e-03
1.226862780674771100e-02
2.614516569999106310e-02
1.516867808513899275e-02
5.967907759186221427e-03
2.133406068107552775e-02
4.075943042192934317e-03
1.288563467798107057e-02
1.442276076008621767e-02
1.269041350169707906e-02
2.299356193195906811e-02
8.392215179833843741e-03
3.319401350050039251e-02
3.258083133655203384e-02
1.509173943490953705e-02
1.601786363187176002e-02
1.135404426996875979e-02
3.054642036819272752e-02
1.080731928359425498e-02
1.670849062536962706e-02
1.896071994477528666e-02
1.262810853858642966e-02
6.440339476829227798e-03
4.266888318388662588e-03
8.402717177882573774e-03
1.477700938348494586e-02
2.084813218508613925e-02
2.052025725384786989e-02
2.540256229487899281e-02
1.979697397451121721e-02
4.910019972349488095e-03
1.264083315840092148e-02
1.832136776741473058e-02
1.630968469523026362e-02
1.053901058444552986e-02
1.435944147841454813e-02
1.299135201587447996e-02
5.614677561483517008e-03
1.386546717148572257e-02
6.613540528797390641e-03
1.651171960225237753e-02
5.984378175199219982e-03
2.419592546256753990e-02
8.715705330744717011e-03
1.941467542286043693e-02
2.163640674474924877e-02
1.737715878687596388e-02
2.602517045333261822e-03
9.423615412082636880e-03
8.095675596074210917e-03
1.097310101419646071e-02
1.101408551351128499e-03
1.126929685775301601e-02
2.169635258340287323e-02
7.084582151137208510e-03
6.554513585584915286e-03
1.137920129769851192e-02
2.272684123509544074e-02
1.711606693572968393e-02
9.638964978934370931e-03
1.064308846979432170e-02
2.218045304169807830e-02
1.747744869638123352e-02
1.616168869615361567e-03
7.771840057922255879e-03
1.888845728576068680e-02
2.332232795737994996e-02
1.476966764944513157e-02
1.682180204853241448e-02
3.804402686738406723e-03
2.058768066289313331e-02
2.543548192085923546e-02
9.749407481494080582e-03
1.104635000050673867e-02
1.109904029214066508e-02
2.370352073839420912e-02
7.162968038641131553e-03
1.211528345400773345e-02
2.269528259044029453e-02
1.787691842508683238e-02
2.006002283197108604e-02
1.308972267710160724e-02
1.145314262442777807e-02
1.822917496943308319e-02
3.157018922899465507e-02
2.846110240161351182e-02
6.039752628560750985e-03
2.304248770612161296e-02
2.178093750655773000e-02
1.466393574811944434e-02
1.444187180329266525e-02
3.571751830075456467e-03
3.552714799795238070e-03
1.742061190782663582e-02
1.403137521181358101e-02
1.748617747271882794e-02
3.276606683436206115e-03
2.130417404109489696e-02
8.222269856793177137e-03
1.473249666977471430e-02
1.162686214879905984e-02
7.522041739753329050e-03
1.457496802425539001e-02
8.444967803483322683e-03
6.574150641804472374e-03
2.665144162014551621e-02
1.145142987303160442e-02
1.212672830014532724e-03
9.255694402971191212e-03
1.529849895608556901e-02
1.502076645121538760e-02
6.344288366972161870e-03
1.526655483644000742e-02
7.036144860583124980e-03
2.976228266321635438e-02
1.395952328645522732e-02
1.752061055490045788e-02
2.055402977244104312e-02
2.139756549676955291e-02
2.509866528730756580e-03
1.490107171910222579e-02
1.614108680678535837e-03
6.055884886354626073e-03
1.062777301436180523e-02
8.044263871310202221e-03
1.992588905536309823e-02
1.684836033648242498e-03
9.054686803245858007e-03
2.831192274747437732e-02
1.596968090937466930e-02
1.294228702715011572e-02
1.868272657323290925e-02
1.849681640144076183e-02
3.296509279531898481e-03
1.618774222170377836e-02
2.997013911718900830e-02
9.276993356409631714e-03
1.235117495862407544e-02
8.096036448148460213e-03
1.247426571557520153e-02
6.516560958307600175e-03
4.695733994503075923e-03
1.642379497109131697e-02
7.321797451035914027e-03
1.566463920657580264e-02
4.714780142957879921e-03
1.140836455045829943e-02
9.587561090796553956e-03
1.815164074446273118e-02
1.162771173369566563e-02
1.486388428092420486e-02
6.690197532321880310e-03
3.209750810251153774e-02
1.480560603037175266e-02
1.008703995449893205e-02
5.149320880408062191e-03
7.466154627685410612e-03
1.586527070071923687e-02
1.317720628042705691e-02
2.305848525779770689e-02
1.575841712742881082e-02
2.384952309122931324e-02
9.662066154164698772e-03
1.250722620936106297e-02
8.644420682772629982e-03
5.485439607477598546e-03
1.214993506902856298e-02
1.661934739694012272e-02
1.090074790293597135e-02
4.559659135918954671e-03
1.570661283949236625e-02
2.605984918406639012e-02
8.612203517681873630e-03
3.798301868952899240e-03
1.166308667188712192e-02
1.145524317674203978e-02
1.940480542605844960e-02
9.083016872368605485e-03
1.149735687228093176e-02
2.158710627232921994e-02
9.289340064190569624e-03
8.197083706190625915e-03
2.697118128324623235e-02
1.484260806408985341e-02
1.949149032794291955e-02
6.333294762471619425e-03
7.688156364550332439e-03
5.091934321358653447e-03
7.762523678220111488e-03
1.058151416344383158e-02
1.499022524134148784e-02
8.795636692562731895e-03
8.018812740410965340e-03
2.606953190550056598e-03
1.843689838978770923e-02
3.522274639799127024e-03
2.419808871245037601e-02
2.312537890742590377e-02
1.600364297891468043e-02
5.627794561997621382e-03
8.700441321055473604e-03
1.097524140349431972e-02
1.597933618480225706e-02
1.594297980158084285e-02
1.828677409123907055e-02
1.486294618573629281e-02
2.560866903818871925e-03
8.999576051626632239e-03
1.364100025563071833e-02
8.815427915206610829e-03
2.257799286917125045e-02
9.201821074698747840e-03
9.003672745481926948e-03
7.293768109684218258e-03
3.091741742973976460e-03
1.410800322979196067e-02
1.332920679511026031e-02
1.145979176472454626e-02
9.917034288967238945e-03
9.398809873291476616e-03
1.086429494942890706e-02
2.961717787491947081e-03
7.491785132906591052e-03
2.297968255618644887e-02
1.102574412605192289e-02
8.244013562354204558e-03
8.469594967600389129e-03
8.178823792404329648e-03
1.513483217809896003e-02
2.758018707427288725e-03
4.665524702851514723e-03
5.491283575441541220e-03
1.544825106060043578e-02
6.080656047237700118e-03
7.634078587756281883e-03
1.630181925889333944e-02
5.866021445402474360e-03
7.680987937604541980e-03
3.381861786123565011e-03
3.292172306768768701e-03
7.275704714386009575e-03
3.186836808401137446e-03
1.217567960787275388e-03
9.211094986101123899e-03
7.687942384359343524e-03
7.644552144397217044e-03
1.069401648043486613e-02
1.891281768796516331e-03
6.977794479000411221e-03
9.652561264469318447e-03
7.596087543805676336e-03
1.125389809444576374e-02
1.060909732192121327e-02
2.130876656884071393e-02
1.314488611161151316e-02
1.107357757162245361e-02
1.171365213519576405e-02
1.327312979967838757e-02
1.551100525296901685e-02
9.215621788286089411e-04
1.681683196725523508e-02
6.721516393805191877e-03
5.737872549539049447e-03
1.878355267456100278e-02
7.877499511901897220e-03
9.988602856461657742e-03
5.987870597433628782e-03
1.797899522824852186e-02
1.222259150464505631e-02
7.128962680828979971e-03
1.249889230586660044e-02
1.377932036823142914e-02
1.802298126894239655e-02
5.974386739107009035e-03
7.946731592090800281e-03
3.498363420601626438e-03
1.327620458196858595e-02
2.166203103044615427e-02
1.084460335986510600e-02
1.713432838343659920e-02
7.190636166360445634e-03
3.999745061405470849e-03
1.317179857681723132e-02
1.147466084827299983e-02
7.936025419969992140e-03
5.520887451465231015e-03
1.437809365162235654e-02
5.684928699523277527e-03
1.506212848755507025e-02
3.480019192076595075e-03
1.524212641110158327e-02
1.009804312945169515e-02
9.425186164404939643e-03
1.269370075809552779e-02
1.452381977944727136e-03
5.806887584954809577e-03
1.514771999990092120e-02
8.983628429007461946e-03
1.065348621320715353e-02
8.091224167209733198e-03
3.924142700280390354e-03
1.430471954847604976e-02
1.219626324447893422e-02
1.209675964250201373e-02
1.110311448409850160e-02
3.031567454675081208e-03
2.650717998061187432e-03
1.386866920739240720e-02
7.293822578446965826e-03
1.442457028296696697e-02
8.718653529886152137e-03
1.109581128389941496e-02
1.010905812782752697e-02
2.460591932550032675e-03
8.786067342799552468e-03
9.147535918691378221e-03
4.525999405670933645e-03
8.046878036440300794e-03
7.205428693943373084e-03
1.011954090049963645e-02
9.766372085744783396e-03
8.270035795221912858e-03
3.025209753534054222e-03
5.399809166511696998e-04
1.291793495350116415e-02
6.616409025683991571e-03
1.706300871932401111e-02
3.329933340298255485e-03
1.267238995672228044e-02
6.694947463960270947e-03
9.079868973494536338e-03
5.024841339300861222e-03
2.454329873277297583e-02
1.320230231748995876e-02
5.456138871887037528e-03
2.542609341639393353e-02
1.573768693733363852e-02
1.488653436227281926e-02
1.003367055356289665e-02
6.979365975084237707e-03
1.123858204051583591e-02
2.164686244322591366e-02
1.294977214311304921e-02
8.159976857420233112e-03
1.315936966686612718e-02
1.238315080737862825e-02
6.665832903934338846e-03
4.097708674855832060e-03
1.313021610034747480e-03
9.486281156034274964e-03
8.276035269941599617e-03
5.187704918517860309e-03
1.267300809859918213e-02
1.685787888026575240e-02
4.331989395805186868e-03
1.336516684299178699e-02
1.507818374974624620e-02
2.127566156251056023e-02
1.105000055379115609e-02
8.762713364383747233e-03
1.326609877811573031e-02
1.499404604569009800e-02
8.790107127143032342e-03
5.230158340419022124e-04
4.659737782152290585e-03
1.783643767966122326e-02
1.467162611833508490e-03
9.767564300509880282e-03
1.556575363131241369e-02
1.822854635527921402e-02
1.392223583360846680e-02
1.066764198148270615e-02
1.181035612106204336e-02
1.389449860716594591e-02
1.034826077805589203e-02
7.655021594535062375e-03
7.136923436146796508e-03
1.148527833954129419e-02
5.800082716130315445e-03
7.588754574323007193e-03
1.212313553050662837e-02
9.216379200409239789e-03
1.417082362837090298e-02
1.142089386630378879e-02
1.086008681478177647e-02
6.305666938988195060e-03
8.499568842740569050e-03
9.661949824098561498e-03
3.747822405027943955e-03
3.114733803800670726e-03
7.749920274744832339e-03
1.272639248244651980e-02
1.590242900457368783e-02
4.564596250939634281e-03
6.943269341523620325e-03
8.097320356237090039e-03
6.480129485477747683e-03
1.055406994627498297e-02
1.009486920912588959e-02
6.062828819074710975e-03
6.563376155991787302e-03
1.448477204593625776e-03
8.589485778319944087e-03
1.023345296431553940e-02
7.046838627779578902e-03
1.644517592812111059e-02
4.722888191799811015e-03
1.701549041497311954e-02
1.822905258509438520e-02
1.680878650090796012e-02
1.037794048958671708e-02
1.960691117571769851e-02
3.722230592298463297e-03
1.519310393232049848e-03
1.547910672493260512e-03
3.929819537225493452e-03
1.074966708209821806e-02
8.996554816862858961e-03
1.248562563793437219e-02
8.690820004107181751e-03
6.895992511317190939e-03
2.106789319166339075e-02
1.328708258129944475e-02
1.841289371003008123e-03
4.795106615770267609e-03
1.390654063790800962e-02
6.991643703101265220e-03
1.596864882774560665e-02
8.751500326446714009e-03
6.681048706864019769e-03
9.958035049428910681e-04
1.083197561915796685e-02
4.829358483757355096e-03
8.545965056699546952e-03
4.145094494688238498e-03
2.699791644370800204e-03
1.034527481919021545e-02
1.687656989471949046e-02
1.959493207121312114e-02
1.916780240996262402e-02
9.948188137913040532e-03
1.406775795002625576e-02
3.926694022621213601e-03
1.101992466039009889e-02
1.132165321411452916e-02
1.561567250170143271e-02
7.990561272084927696e-03
1.518123911653623120e-02
1.306872693414128789e-02
1.313347874904802377e-02
2.361096505859794706e-02
9.790965082584002568e-03
5.683946169502119422e-03
1.781534947133285932e-02
9.277968109906779143e-03
1.532816668482900845e-02
7.844488773103593451e-03
1.301231466276245481e-02
1.389037453278251302e-02
1.158793026933310072e-02
7.087489836109647431e-03
3.292063747529454156e-03
8.994312505848074332e-03
5.204655353916379582e-03
6.628151683904707700e-03
9.017051746745571514e-03
1.037227091765106218e-02
2.133150251261303320e-03
2.282548365655167732e-03
1.055809269893559846e-02
9.569428743012040398e-03
6.724610249380580211e-03
1.134952200843281078e-02
7.023407781394868689e-03
5.028182096891892910e-03
5.471910609108666251e-03
9.704092095033051840e-03
1.075339780706766231e-02
6.912444801913227889e-03
1.080887510975752676e-02
1.142670428494817723e-02
6.402791354708802819e-03
4.560486385540429323e-03
4.571699976474188215e-03
8.242099367359959419e-03
5.784613208090438191e-03
7.140376399570417046e-03
1.288970790621587169e-02
7.881639205242032750e-03
1.129535284729542809e-02
1.072860810380537634e-02
2.258948714920020525e-03
2.694300697834847800e-03
7.685875481453692017e-03
2.729891547153982627e-03
6.826895588774070656e-03
1.368023655364361719e-02
9.691559256949124068e-03
8.336004255659900525e-03
1.110355460471884256e-02
5.761830926967759399e-03
4.876458951312161172e-03
9.256744200749253068e-03
2.725491199957668070e-03
7.433244111512525218e-03
6.134270768104950131e-03
6.012568018733792548e-03
1.667736939288850043e-02
1.424413118057381994e-02
4.536356344790107992e-03
5.345198125636398644e-03
2.936379875988088303e-03
9.312651789117531650e-03
7.829761104898630766e-03
8.478542114125933032e-03
1.329508788963589851e-02
8.227541344231066936e-03
5.501804435513912156e-03
5.898497732184162200e-03
6.083170205862248846e-03
6.117198680673585978e-03
1.523919101653042419e-03
9.713981822220585025e-03
5.779512784521417118e-03
9.760367115734644786e-03
7.508320622197119966e-03
3.038435549332493910e-03
1.787473346325992984e-03
1.132949433922896681e-02
1.290325075486842971e-02
4.344423554819302515e-03
8.589850627057124544e-03
6.835001507561829642e-03
9.826668125912608673e-03
4.645909532037816730e-03
4.962497926771418898e-03
8.425850770791212460e-03
5.835609247765356257e-03
4.853197253950143099e-03
3.717980399842825152e-03
8.264607588194528009e-03
1.100761068617473609e-02
1.477212002343156888e-02
1.358205804630973484e-02
1.310540409745894475e-02
3.466635788810045957e-03
5.165289708278054254e-03
7.508146864684783241e-03
1.348519289055963299e-02
5.709753469738973117e-03
7.618581750065725813e-03
5.155884753877225737e-03
8.531370144741885070e-03
1.087377033435736259e-02
6.359128237512058114e-03
5.107989108018459908e-03
7.822290097096638861e-03
4.776317391373012533e-03
5.805562518106750433e-03
5.932677820011114482e-03
4.563954954658933777e-03
1.221536541723873895e-02
1.218012298832560347e-02
1.306062583331012508e-02
1.041084817969599105e-02
1.167144525173416034e-02
1.046295587274930113e-02
1.995151067577568237e-03
2.553685003652440833e-02
1.011392763808570926e-02
4.219861434786217544e-03
7.256295931251986395e-03
1.627569056553925669e-02
4.849924635692485879e-03
1.397639345057380064e-02
3.568314619004326910e-03
1.262303567862053770e-02
6.188395378078940731e-03
6.848812808312504732e-03
6.611200190220481096e-03
1.198766703260344688e-03
7.188613896399306293e-03
6.026363293696369167e-03
4.125849758539400572e-03
1.694216114657286221e-02
1.640735380577061989e-02
2.537571911566311334e-03
2.119914015084983696e-03
1.791334971746312218e-02
3.769358502932675971e-03
6.622612302104523632e-03
1.249209806879091056e-02
2.181388605437375658e-02
8.186543347505280746e-03
8.908279114157270293e-03
8.456310616899860924e-03
3.066774221605503455e-03
1.252629409951683953e-02
4.955795642970392025e-03
3.153195330967533891e-03
6.309655152779803516e-03
1.107339694874546164e-02
4.319850408271860842e-03
9.448731200296346059e-04
1.066518422041065096e-02
6.029894264930818655e-03
1.329104579838278136e-02
2.679271986226819825e-03
1.448145403640580670e-02
1.464820213949482794e-02
8.850970780334522364e-03
4.636001812497769423e-03
2.342452986042379767e-03
1.418359807407311261e-02
1.299051099198364652e-02
1.681315635200388448e-03
8.653955375577081222e-03
9.305175143917130982e-04
4.809711399346090419e-03
1.480689320076537460e-02
1.310845601817919176e-02
5.799267721710353249e-03
4.913571493403652395e-03
8.734387692553292198e-03
3.574070163501434551e-03
5.171611602161502522e-03
5.878518899017553222e-03
4.213686766627488395e-03
1.221335439045647016e-02
9.974545159242080919e-03
1.195478331945358519e-02
6.280566577967918764e-03
6.591270293283119780e-03
1.162938912512657789e-02
8.619184461747907491e-03
3.050279956827717676e-03
6.313839079089420686e-03
7.440744934866539220e-03
6.129104023142949165e-03
2.732953163168046770e-04
3.552195653192810349e-03
3.997386623553248440e-03
6.050493734002429687e-03
2.083459869477914759e-03
2.492265965253331710e-03
1.422569685468995544e-02
7.097152525046712505e-03
6.318673796000377069e-03
8.401278084464175108e-03
9.378420937208522754e-03
6.722083837344525539e-03
9.178764462542987265e-03
6.240975446960445386e-03
1.184762006325311250e-02
1.498807368734087798e-02
2.267594163592600784e-03
4.005063755734429576e-03
3.178462710366818707e-03
2.859512630998876665e-03
7.481719654377344368e-03
9.630615025960694020e-03
1.402991218547697955e-02
4.281667391649862132e-03
8.177101483667386511e-03
1.131593545370548209e-02
1.957962858443070258e-03
1.489927562622493304e-02
1.545677661673413444e-02
8.765250492692040415e-03
5.439428897512746039e-03
8.817765638009254781e-03
5.506206028102100108e-03
4.409261102620470538e-03
1.411953626730940922e-02
1.016781095415490548e-02
4.275440012044107174e-03
1.068838440757838640e-02
1.013347235105805213e-03
1.363082797007843933e-02
9.008970601228035932e-03
1.094534042743990077e-02
7.841928168002809327e-03
9.606727097400359280e-03
6.201202184016835900e-03
8.005144397917193181e-04
6.831914683741256884e-03
1.145983476488453279e-02
8.641692705970659832e-03
1.210091085400910073e-02
1.670355781594407701e-02
1.151808972077998997e-02
5.775548909223277537e-03
8.653101356298473212e-03
1.265665624801955678e-02
7.572881423340629102e-03
6.847116090141708647e-03
6.725738310559391774e-03
1.269654012927625558e-02
3.877124686864253864e-03
1.244991696929372699e-02
7.950041405449586804e-03
4.654275517581327876e-03
4.831081989853538636e-03
1.076162812526325861e-02
5.217588624593657610e-03
6.689981897046919611e-03
6.749086559504110204e-03
4.602756354467419340e-03
6.651712628118050356e-03
8.950022480138944414e-03
1.905562763336734284e-03
6.975116942273072891e-03
1.394235587472082184e-02
1.620022816604714186e-02
1.105337738721230353e-02
6.482645117880661383e-03
1.079855700227868448e-02
5.630358197418759529e-03
1.349407921899338503e-02
9.514962861290004667e-03
3.465256861635552296e-03
1.956968714019556924e-03
3.645303475194941901e-03
7.969059486261788339e-03
1.192840653367810769e-02
2.390688357955731216e-03
4.471532463003678216e-03
5.984792065905519820e-03
4.144143489720742562e-03
5.782328140418356403e-03
6.693789223323825914e-03
2.148797734139052101e-03
3.755477002023805723e-03
7.748734477157131692e-03
8.830961777027178730e-03
1.572698523609212737e-02
4.911712026637158127e-03
6.065856101412689556e-03
1.684662459690295126e-03
9.584926901000391172e-03
6.333265811620186238e-03
1.291244665589807473e-02
8.217514891754280210e-03
8.186032291595242080e-03
7.781023465231744381e-03
5.865480512421355520e-03
2.600260240324474368e-03
3.351226058572461235e-03
4.013975731152415877e-03
6.756547915582278296e-03
3.992520185167095469e-03
4.398434083904601694e-03
1.016717880176135416e-02
4.697767126040936631e-03
4.019226090629956540e-03
1.039531351439145282e-02
3.751622778683000922e-03
6.048703421951225588e-03
4.732975542101862908e-03
4.448407966201674800e-03
5.175234215980651677e-03
8.382638978927263451e-03
3.025630486315881301e-03
4.045563116703338249e-03
7.184853227816565685e-03
9.879112713749835933e-03
1.328599367022329381e-03
1.025107881962122186e-02
1.198535035493582257e-02
1.748515736937750198e-02
1.684317352294893624e-03
2.738022295930981872e-04
1.967471096632288259e-03
1.666783636953959868e-03
6.522581963450208888e-03
7.054932709881377509e-03
8.404004820122192021e-03
3.673239115173108048e-03
5.176326875264565877e-03
4.786208996905425526e-03
4.271966684492354595e-03
6.123381757204643394e-03
1.282815312111790923e-03
5.879278009658404219e-03
1.711336169489134293e-02
1.164772612386749326e-02
1.042991679008629588e-02
8.670988119354369403e-03
9.416779392088530168e-03
9.908571622286881445e-03
2.541378569603837574e-03
1.127706204915623726e-02
6.134928716018658856e-03
1.030284369588248608e-02
6.079849405731655755e-03
9.614389138274769334e-03
1.205601259146539886e-02
3.147373772835576535e-03
1.108625982509617303e-02
8.972537989407922826e-03
7.287011272800130932e-03
1.959457828726902592e-03
1.014096152652441477e-02
9.554928351721607427e-03
3.564289124921379229e-03
4.004418923683992181e-03
1.116387363464801594e-02
5.527287019995200459e-03
4.224878384075008396e-03
6.177170809907606315e-03
4.334635957505858332e-03
5.209142365638990378e-03
1.297787430713007693e-02
1.757316152026641015e-02
8.171698080897151634e-03
1.123124797331623986e-03
2.585547480308609831e-03
9.214744233449929933e-03
5.778567049750729656e-03
6.281052643350419455e-03
6.806306715163382322e-03
5.972896078435612280e-03
5.319462991978053147e-03
1.083703279313710278e-02
9.419139346888181358e-03
9.653559263523641201e-03
1.067510449838501982e-03
6.749515274809526032e-03
4.426749043875155033e-03
8.576678147077885367e-03
1.171418454035664343e-03
9.832078856258204269e-03
1.181138587576733082e-02
7.892321445336903524e-03
5.155634862523620320e-03
1.352960740423428355e-03
5.976695853901977523e-03
8.391522181768251709e-03
9.269927138938155106e-03
2.212158584404144094e-03
5.151366156828725458e-03
6.711301666208127972e-03
6.335666337500948410e-03
6.626749167245813039e-03
1.299351279868551749e-02
8.135473613066528803e-03
8.361263147073113092e-03
6.910981129909472137e-03
1.716406131562184245e-02
1.238650982660999267e-02
4.695987228594207356e-03
6.555026753892087034e-03
2.109322905616257612e-03
5.512818135438887594e-03
4.522245607612613259e-03
9.129400065343800871e-03
1.489835926978255124e-03
1.208271056030530213e-02
7.497937573136240381e-03
1.292709479384120466e-02
6.723337216267096482e-03
2.940775911117787193e-03
4.278615804631162416e-03
5.257578696303688050e-03
1.062019676481635970e-02
3.777644493810098855e-03
4.329286938167197472e-03
1.028065095323452312e-02
9.331606026260503423e-03
6.486873473298748922e-03
3.551990332283325950e-03
1.135377601749001063e-02
5.470605317314258982e-03
1.781762319479140294e-03
1.063384672816389308e-03
3.484164453632805896e-03
1.908172571979962389e-03
1.939936429143034654e-03
1.696685744964446588e-02
1.178226681013883233e-02
1.295021772104585321e-02
7.635946856583190889e-03
1.267541680334581013e-02
1.106244554098751581e-02
3.486924201858860976e-03
1.663371206511740077e-03
3.726872891358762405e-03
6.534530787743977887e-03
2.935970880622387064e-03
2.294523602752762768e-03
8.322480614576693511e-03
6.640513022783302820e-03
5.248055146877980866e-03
8.841009991180414154e-04
5.884089752105752143e-03
1.010296961829389942e-03
4.325102600361275390e-03
4.773997814014562663e-03
1.968389903854768450e-03
8.299452899419367674e-03
5.154332686789375555e-03
2.403560087621032289e-03
8.910287458351097770e-03
6.139390675703368036e-03
1.308772161694768919e-02
1.322644284043119310e-02
3.339534212539107746e-03
2.485587395618109059e-03
2.393625558532721728e-03
5.954184518257621232e-03
9.149968502612019355e-03
1.200917797339309291e-02
8.848036940728698160e-03
1.000341090738622769e-02
9.130884940217177904e-04
6.712758401515994157e-03
8.440088419003372033e-03
4.569814439019495404e-03
3.986871011128060617e-03
3.054323080001937214e-03
4.702816967477371074e-03
7.629188673320291304e-03
6.742948828103060427e-03
7.647244289842636093e-03
8.387945936769093669e-03
1.865574838910036976e-03
1.138210173123404417e-02
7.798149099641745255e-03
2.864559613001045352e-03
7.367688529563327926e-03
7.709388789998482608e-03
5.185585846636414122e-03
9.021997276364646795e-03
9.044009921146499778e-03
6.206575664200375021e-03
6.474691801960589382e-03
3.627835840779143292e-04
2.671325128155355253e-03
1.120825148222940291e-02
9.434890899971780723e-03
3.790402937868591390e-03
7.045001725636784555e-03
4.855587253918791125e-03
7.668865284894467796e-03
8.292188821055446538e-03
4.220569708755614498e-03
2.454186225446199597e-03
2.503057138565658452e-03
9.628351758011409120e-03
3.101664734093439752e-03
6.354297560106644295e-03
9.489203268157112708e-03
7.650340389108060274e-03
9.365746325198825648e-03
4.770000960788851191e-03
1.161661469166281810e-03
1.268716125808430802e-02
5.264692408427881429e-03
9.587118654341821120e-04
6.427287104717903897e-03
5.232444950850481842e-03
3.160361044987485511e-03
6.052403663407204641e-03
9.482094667497808702e-03
9.309142316510202880e-03
8.063943055808094756e-03
7.383547242466092196e-03
1.213967621944948318e-02
5.365695604496335119e-03
1.023925410686178823e-02
2.798017922391545821e-03
8.159176471662081542e-03
5.244334507161051671e-03
1.027286931191163412e-02
4.431721884875496238e-03
6.951085047966204869e-03
3.926231497805206423e-03
6.831826014772157500e-03
4.113558440882275798e-03
6.756067062184871984e-03
8.893247631690836749e-03
8.336681007349536210e-03
1.938200000492482523e-03
6.734988872866846422e-03
5.866448350716456546e-03
8.295335852613217043e-03
3.401984503670283690e-03
5.066129910948438154e-03
1.051398103102642312e-02
8.041636824176533888e-03
5.535415023590291306e-03
2.970980053504841852e-03
5.763391903134500865e-03
1.169967140535412009e-02
2.908506139722201629e-03
5.772651765216165777e-03
3.897543771592815089e-03
2.704267088400142457e-03
2.336695131478159267e-03
5.707639630844466537e-03
3.731650932937185389e-03
5.322799467768607289e-03
4.576716251909751509e-03
4.902455050085344733e-03
9.984382012503865977e-03
1.602469697797862924e-03
6.166700530925559379e-03
1.245262549290707815e-02
7.657988271266573561e-03
9.275292280930392749e-03
1.072453580699889511e-02
7.366180866910515546e-03
2.127891268040964234e-03
5.613084866456116880e-03
1.024274428271255630e-02
5.964234861069002240e-03
8.238307631172066270e-03
2.015222624055431570e-03
7.876614123503190845e-03
9.381989243026590472e-03
3.005805655173650857e-04
3.316162909979516755e-03
3.456345634502947135e-03
6.668247118958040877e-03
5.436267268705077989e-03
5.135004950729192726e-03
5.624758445108150526e-03
6.326681050987828341e-03
4.789692242652771048e-03
8.033317723961744608e-03
1.141047240240765544e-02
3.006246646228057356e-03
1.166065453804515433e-03
3.540117012867024029e-03
8.056708139813274772e-03
5.770832698689923670e-03
6.121922189778746665e-03
8.385018163247742740e-03
4.895952036873404360e-04
7.403599568103958264e-03
8.719738477243900096e-03
4.189320257510738277e-03
1.160219047881824381e-02
1.099264202549022490e-02
8.671863486281615810e-03
4.406891195965972202e-03
6.570909652199759254e-03
6.503955760552986541e-03
3.692454448192677378e-03
7.333067134585954765e-03
5.478337086004579984e-03
2.132772157236850503e-03
1.515308955489691640e-03
3.692350864247085414e-03
2.496181266441697359e-03
3.771276764514277027e-03
6.411126349849432908e-03
4.711953410223262972e-03
4.634012376909864284e-03
9.746308704318274244e-03
1.017004668011937387e-03
5.596214487441900608e-03
6.522918695838064197e-03
3.659394352689801250e-03
2.508596303531749738e-03
4.932756373024118485e-03
3.385903976939732239e-03
5.144840955712380245e-03
1.479489179564846997e-02
6.381664018649989972e-03
1.248949525791583732e-03
5.024091266026270951e-03
6.364675082987271762e-03
4.630243245666600810e-03
4.642997307044646055e-03
7.204270611206725454e-03
3.778011380395014922e-03
6.080563532512722920e-03
5.745648688183313188e-03
4.908161290569410841e-03
5.615761565525390769e-03
2.673893139820514211e-03
5.532779039760772621e-03
9.017268612329384459e-05
7.804007961757952099e-04
5.650019821210224003e-03
4.043311269156736783e-03
6.510564804286520998e-03
4.244942933986089670e-03
7.676799237161957383e-03
6.019925448947634032e-03
7.365859703606112384e-03
2.130681002293082545e-03
7.170851966672468422e-03
4.941438155251005014e-03
2.738962347575367526e-03
3.924594448668364613e-03
8.880915373921265989e-04
4.947558104688849941e-03
2.584714869712403766e-03
1.075835043667629741e-02
5.865705807506255143e-03
5.594951086158796161e-03
6.900595551372634869e-03
7.022133545956718917e-03
4.998696767501061358e-03
4.564563874269788289e-03
7.972169466056770737e-03
2.157326673733640267e-03
3.611849732225395643e-03
2.142530230728923075e-03
7.127683673190374214e-03
1.106558998950306870e-02
3.819897031823010422e-03
4.340625814939185444e-03
2.940793551896464433e-03
4.025810477465831955e-03
1.018162182462699350e-02
2.257642965907312275e-03
8.604656989895077823e-03
1.280189632450690583e-02
3.983392016384781215e-03
8.828723154230668294e-03
1.942025547677237113e-03
5.944270997592943778e-03
4.834333966029590209e-03
2.073176556591544480e-03
6.708729572106951304e-04
4.799179241321130385e-03
2.689966706787847665e-03
6.834597986522486512e-03
8.819725832019125952e-03
8.225866026291797813e-04
3.678793321585238120e-03
6.369513557801675767e-03
5.745142223895617281e-03
1.618414683609879084e-03
4.128259493326993414e-03
6.426854306616280182e-03
6.780830025117745401e-03
9.661444382555310281e-03
3.555915977776011403e-03
1.855912457133700177e-03
2.815067723530404516e-03
1.638410964053325968e-03
8.668423247136139431e-03
2.734227994636457930e-03
5.880617509724199790e-03
6.418081584538913760e-03
5.832168942199002400e-03
4.987985414507626475e-03
2.987357683133406126e-03
6.014835551733549099e-03
5.746605863007709682e-03
3.432573373095153257e-03
5.921865128160838827e-03
1.072853009353906539e-02
3.984011522877774908e-03
4.110203568619431695e-03
2.449513642026178266e-03
5.697215821126838664e-03
2.861392227686376192e-03
2.829338257688763809e-03
5.135870395269976317e-03
1.249655790306003489e-02
1.149211768986124413e-02
2.949481278582434789e-03
8.000764192325860585e-03
9.108470199567448092e-03
7.922792411895019510e-03
8.583122000937809179e-03
4.935589117122645558e-03
7.921238335583447032e-03
1.040843224579195321e-02
5.432463844655719722e-03
1.649433779411961900e-03
6.268940899160504272e-04
5.396277621855874625e-03
1.623431431315732528e-03
6.577760123092102687e-03
3.746529962427078315e-03
2.664056386083077550e-03
3.765242296108399760e-03
2.795314029925958111e-03
6.151165798537453280e-03
4.859023869305638399e-03
2.338323661590959324e-03
7.166764752957822775e-03
2.856392708970745525e-03
5.509712298238227460e-03
2.434842537272760999e-03
2.183289237062228504e-03
6.343144677186226578e-03
4.663804480019631375e-03
7.527314662224085691e-03
8.288943193810323698e-03
9.432998504359212111e-03
4.950045749899191494e-03
3.632131687097665037e-03
5.161311826174574957e-03
6.757565257091306676e-03
9.540630714287092612e-03
6.579275264468626566e-03
7.275672522314926075e-03
1.963773430228458149e-03
1.593721556467959585e-03
4.009388181071594365e-03
7.689588791930530506e-03
4.304989980956027730e-03
5.035366311396253722e-03
4.125522298141944683e-03
1.202561524675583790e-03
2.597111857528195625e-03
8.841735939119495583e-03
4.858539638279788658e-03
2.087677865687752408e-03
7.871571952504780728e-03
2.272782489655289073e-03
4.096917683667103231e-03
8.738788224374861510e-03
1.480088551755494872e-03
2.052823144291343258e-03
8.555075439883264238e-04
7.880913863948037917e-03
4.414244002747015616e-03
2.806484641605868843e-03
4.372694056076934649e-03
7.604481532626995201e-03
5.115006019505169248e-03
4.874587647074138733e-03
4.455289540148636186e-03
2.730443426116802800e-03
3.797443468603257932e-03
3.372486011414095857e-03
5.352586981286021513e-03
5.123826509868237636e-03
4.237786084890744938e-03
1.127662890920119992e-03
6.276702147811932288e-03
7.372219978634466167e-03
5.526479195056968781e-03
2.678041059697538508e-03
2.422095281564489149e-03
2.139291782628420600e-03
4.053476249427095598e-03
2.226373488333430791e-03
2.574448711206558937e-03
4.023080487848087507e-03
3.751135760284923185e-03
8.304417584335255231e-03
8.711705195239997923e-03
4.978717682615318996e-03
7.495368232884805706e-03
1.039125046815204262e-02
8.565829540408255102e-03
6.088008119986673163e-03
8.209589202871648075e-03
2.270445584514363836e-03
5.437138895580171001e-03
2.628604334391753533e-03
5.561296165287605946e-03
4.153055405417780191e-03
4.829468528361231458e-03
2.221383033368602971e-03
2.114163141333677901e-03
1.479830622466133012e-03
5.583661976229393510e-03
6.933390298639451922e-03
1.100492537936070825e-02
3.850838062122984365e-03
3.973442012019795522e-03
3.814786991120352154e-03
5.880465750495073723e-03
3.223910319678922193e-03
5.479429573466839190e-03
6.051519853123996789e-03
8.055512773546380512e-03
9.294055062707950662e-03
4.319982053503880134e-03
2.653359007212838499e-03
2.186968798420263135e-03
2.830242704778950218e-03
3.706975608100058096e-03
4.041480834458724414e-03
3.526880974498563474e-03
1.282635532046930670e-03
2.145602617759169266e-03
3.458192223506764001e-03
4.618600398084008948e-03
1.378871174887409722e-03
1.186890369525831455e-02
1.284813931311723327e-02
1.089205395041648690e-03
5.769948764343727637e-03
5.858989128794411978e-03
4.349342434500247379e-03
7.591825178158788899e-03
6.020842622181874805e-03
4.307231646396746799e-03
3.434796012484947914e-03
8.518115603753746365e-03
8.337637708716233442e-03
5.624020981583211821e-03
5.794860890788529513e-03
1.265236133492783329e-03
1.455245527739653603e-03
2.244245450902373346e-03
2.208752774572169016e-03
5.393357248432046301e-03
4.059423240356608252e-03
2.934651421717334591e-03
2.753426958623598261e-03
5.458217476362220086e-03
3.481166368386353054e-03
6.075081740648595810e-03
5.124970381784037070e-03
6.450362723915060992e-03
4.202752487159550250e-03
3.896074878324221318e-03
3.891425085775937574e-04
1.209953702162784887e-03
6.593497430927935075e-03
3.890224429952219946e-03
4.818808019961318134e-03
1.517747005504517695e-03
2.272827362730012960e-03
3.812540972035665179e-04
2.779106071682756023e-03
3.696993908052893275e-03
6.019565200176235122e-03
9.165186766778427724e-03
3.332308336157037941e-03
5.547364183897473579e-03
1.761187594346618358e-03
3.516158673987926364e-03
8.388542858229682334e-03
8.157440330072245754e-03
2.721340322048914056e-03
1.049116308604476633e-02
2.215463008210159530e-03
2.110838236550374204e-03
6.061480987215970596e-03
4.411378672676711729e-03
2.802102946106727142e-03
5.283434528541653200e-03
5.517860118966905203e-03
2.712852203685337232e-03
1.489870396084030241e-02
5.013817490616908484e-03
1.661540478587167921e-03
5.112623620717465442e-03
3.137370427310640433e-03
6.376457543414132574e-03
1.130387489995113293e-02
3.084676570658809441e-03
5.237096469733661802e-03
1.595270822182418046e-03
7.248628130487632867e-03
1.480440374926953384e-03
3.256396468247797250e-03
4.579773219160976350e-03
3.556596255038534538e-03
2.805900950331321510e-03
4.064434711084120855e-03
6.830242121917182337e-03
6.635559568523173492e-04
6.077709959940917270e-03
5.902985143419938602e-03
2.899286935259579468e-03
3.464500169534133825e-03
2.662171513908661788e-03
4.060182499450638687e-03
3.470847604648644950e-03
3.944206437778373896e-03
2.067432305523514164e-03
2.940615141106396255e-03
5.657524474939040933e-03
2.076345029257610497e-03
4.796290881069981658e-03
7.172106925240485931e-03
4.138099080911967348e-03
2.607990059647268596e-03
6.317501863229482359e-03
5.199218763897456817e-03
6.868061399021450388e-03
4.577030207104489969e-03
5.299165271481944342e-03
5.798964129844929281e-03
3.687458781355271945e-03
3.994398202739612123e-03
3.335384462752035740e-03
3.373289027011525630e-03
2.707611880513247776e-03
2.248956757591985111e-03
4.832153761596928374e-03
2.925049611928816958e-03
4.229937072931153758e-03
9.555651206169821308e-04
4.609917162677958612e-03
8.038859564668637131e-03
3.540263079787419383e-03
2.557372178702870674e-03
3.901911634848104736e-03
5.428665628240771091e-03
8.783637993736773814e-03
3.198427821609926575e-03
3.384313659475839727e-03
5.825594111872924030e-03
3.461792833377735738e-03
2.583159214937284787e-03
1.787836537936278751e-03
3.666820156764967215e-03
4.086997184815726290e-03
2.738790042358870813e-03
6.268251535524298375e-03
2.129230914346365734e-03
2.546426767309020647e-03
2.019381560364439960e-03
3.469668863884245360e-03
3.780283333149248807e-03
2.894002377478002101e-03
2.865452699760870445e-03
7.379223073328743110e-03
3.520099709661760837e-03
3.959551544978148069e-03
5.084070369901549057e-03
1.977943930582535311e-03
2.306182845247993062e-03
2.964611691159143615e-03
7.847085524496201850e-03
8.555257914383287109e-04
3.667578999111365153e-03
1.655876817376302412e-03
6.017648452955568460e-03
3.048975382766517476e-03
6.628957759930748095e-03
1.317395968859716698e-03
4.550085643171915620e-03
4.870006465943295740e-03
5.405627951772418345e-03
2.246904563818191876e-03
7.553348886447356801e-04
6.105196993178586481e-03
4.810128123036720021e-03
1.090325287924892974e-03
2.465925271135027078e-03
3.547131129922556788e-04
4.453712838786163218e-03
2.817316640635128544e-03
4.775642259518202148e-03
4.193185459304370026e-03
6.620784172128882546e-03
4.226093569944497190e-03
1.801285305522070659e-03
4.031494829082609040e-03
3.615081389469726025e-03
3.035496125834326840e-03
4.888866201691873664e-03
5.128215720526833714e-03
6.721441261609677371e-03
4.743306389377637856e-03
2.853676770529829480e-03
4.944769738111518854e-03
8.260127216084276261e-03
7.306556613618993799e-03
1.668785699806437295e-03
5.936743797253550906e-03
1.032711315563635945e-03
1.462870807096748821e-03
3.370121271445463123e-03
6.036292007017557935e-03
2.810581812457520461e-03
7.149986836385385097e-03
1.781261351807316264e-03
3.419390734977817772e-03
2.599685958976427798e-03
4.901800390330134094e-03
4.691766781873145213e-03
5.852100407264309787e-03
6.206321205940190135e-03
9.912661371838020138e-03
2.858378126691366559e-03
3.865618333811154852e-03
5.686493512521278819e-03
2.424870101400959654e-03
1.380345234402498332e-03
5.336741001417070335e-03
3.024840070707288543e-03
3.420260790798873487e-03
4.492958504531247531e-03
4.282044028966154603e-03
2.241465956486139634e-03
4.739007224993042368e-03
2.352116933829170690e-03
1.438810379881622255e-03
5.111099600904713165e-03
6.521259062506801554e-03
4.147701552368202559e-03
5.446064964732600690e-03
1.627759712131182689e-03
3.251866338074325003e-03
6.704187574292616407e-03
3.877156572186052971e-03
9.634628763694166181e-03
6.465919080472015863e-03
3.562671432795026273e-03
4.631026252345659885e-03
6.257469331307444899e-03
6.402788344966457712e-03
2.526169016334066462e-03
4.127327078850607546e-03
4.229383699207804256e-03
4.012588387901548648e-03
2.243880257791083365e-03
4.494745318633317291e-03
7.137905455930478212e-03
3.775373021321270107e-03
2.883976602365789961e-03
4.167196046756279151e-03
4.790751588537493257e-03
7.069280207607818792e-03
8.093991078763946787e-03
3.586973405771743707e-03
7.945995873177096568e-04
4.291006056101331033e-03
4.207207413675171509e-03
5.145748735237178767e-03
6.166239916841400985e-03
5.346106422983640076e-03
7.219660023401328758e-03
2.548769276320942030e-03
2.973932771915967655e-03
5.330280612921073878e-03
2.454866035412511024e-03
1.935987327368572913e-03
6.975799611946324969e-04
1.681908754355402767e-03
4.397220073668891595e-03
5.526842611666868757e-03
2.579307097279684609e-03
8.110663179025066200e-03
4.698806772468402428e-03
4.925814633453999905e-03
7.008181368862211220e-03
3.556979718122530235e-03
7.279148059590728227e-03
2.684693631924359777e-03
3.770741492036155072e-03
3.520938229248932703e-03
6.407327883721197770e-03
3.260676850199881963e-03
9.945634627698618849e-03
3.823555295248289108e-03
4.040647099309562819e-03
4.247440900855965241e-03
5.930261702489522321e-03
7.880919004410381901e-03
1.226309947085294817e-03
1.010908622040054307e-02
3.072791796993051047e-03
7.447337711764673296e-03
3.570498949922316229e-03
5.085357684438814203e-03
3.654772853655546567e-03
5.382416064037101253e-03
4.400003318642186842e-03
6.584572457317756054e-03
5.717469340977976953e-03
3.162893738015057007e-03
2.009146233822917040e-03
4.470083316555131629e-03
5.936314558937829874e-03
4.455704597366066770e-03
3.513108281362717009e-03
7.632774484431884519e-03
5.407802230855164594e-03
5.639860609412512653e-03
5.265323972179365361e-03
6.232221852395971110e-03
4.025628538360599001e-03
5.288687021654784118e-03
2.349220324397677511e-03
1.737270615122052213e-03
7.266029496840258409e-03
6.006325371564036342e-03
3.931728472431257962e-03
4.019430321884774962e-03
3.525333242113374774e-03
1.713850232130132442e-03
3.512385666999492343e-03
5.716817891746484720e-03
5.395871573354151050e-04
6.456841557192526983e-03
6.650736763543417703e-03
3.250556252364347233e-03
2.821631702212386988e-03
5.357219202849127122e-03
3.220671861338031319e-03
4.251691256469625202e-03
4.656509483452160765e-03
7.281705504541076748e-03
1.762898634354748790e-03
8.379636818277467689e-04
4.562858890004067337e-03
4.134602125240669640e-03
4.557655414696610251e-03
1.753408934561378509e-03
1.753473493400236867e-03
2.256660290178920999e-03
2.001462735362230169e-03
7.625723055671827441e-03
4.500153807503524776e-03
2.646784409669162424e-03
2.906750735633818663e-03
3.991638112105184120e-03
6.097016680184938128e-03
4.674520187101328939e-03
6.851588133957204306e-03
3.927869529752835848e-03
6.978653146430733450e-03
1.600108230876055512e-03
8.597812259318087652e-03
3.948042909228738871e-03
2.830123509927420095e-03
6.996262877433823135e-03
4.987999254306491569e-03
1.292807869665126789e-03
3.377008587476013068e-03
2.653643931054253894e-03
4.292803750222178201e-03
1.862876120066058730e-03
2.721170186205189908e-03
2.156962824248927039e-03
2.852822385412751710e-03
3.947438893276268221e-03
1.515112670785215884e-03
9.365916694247303914e-03
4.745239146171827301e-03
6.459852202102095778e-03
8.005753981234141683e-03
1.956862952107306375e-03
5.365221016340761089e-03
3.212095236245140518e-03
3.686033409604349588e-03
3.907437923554811336e-03
1.725126471414042354e-03
4.443361211485711594e-03
1.257889983687305755e-03
8.883083355400197938e-04
3.493273379642242854e-03
6.481993907811024400e-03
7.767695582417736243e-03
4.416253558976145945e-03
6.286503513697306623e-03
2.642430040993823653e-03
3.094650427681324822e-03
2.302542627471962280e-03
3.640784061038464421e-03
1.974242363166058174e-03
4.451826878435459663e-03
7.417003301070789097e-03
6.041582688943309722e-03
7.530052100581519428e-03
2.818375451354033275e-03
6.737111736439759489e-03
3.370577082900863726e-03
2.811567885589289460e-03
3.007718760390082867e-03
3.788050362245120456e-03
1.687298059078749541e-03
8.583102551325477248e-04
2.724161268419376686e-03
1.712962157338737039e-03
2.772324945455009043e-03
6.259012757154212153e-03
6.478390619403625282e-03
7.763050288216087787e-03
2.307353128839383007e-03
4.815310914141817202e-04
1.989931798961825423e-03
4.854111882705815055e-03
1.327516933554966127e-03
4.618272482701091426e-03
3.579177679697730617e-03
8.049290577979734129e-03
1.001798392013417529e-03
2.988794561163721306e-03
5.657720207410779287e-03
3.384639878391264289e-03
8.952267023281564040e-03
4.561259376029625640e-03
7.281496755443112295e-04
1.593295144311431509e-03
2.129295739381831167e-03
1.107926469043483790e-02
1.899106664191144373e-03
2.372806430523444893e-03
4.162038164698489938e-03
3.966567070477904598e-03
3.179598511015646958e-03
4.421248408556480332e-03
1.002018477444266073e-02
3.237143385401959096e-03
2.231160025535334525e-03
3.308254406636792003e-03
2.825556819928688214e-03
4.925275453757488840e-03
1.437209860013332523e-03
6.436712942091771597e-03
2.082767036167955908e-03
2.322725382226941380e-03
3.192702926226277053e-03
5.637963159646398707e-03
3.723228832826250105e-03
6.205337198859820977e-03
5.713782164679364478e-03
2.817648581927516011e-03
4.821098592791396055e-03
4.608681377375732115e-03
3.188319365614971680e-03
4.198128417982613554e-03
2.951113309792725327e-03
1.847068819982607092e-03
5.766088020638785762e-03
2.840218794564561538e-03
2.967273712026138009e-03
5.414441301743553626e-03
1.562048668607942791e-03
2.293061272878332661e-03
3.502729284969771737e-03
5.092797830054025983e-03
2.460925345072464184e-03
8.132677394347542082e-03
2.936547397013996186e-03
7.761402048379295940e-03
4.928219512147938818e-03
4.257896921130857951e-03
1.122226244475531005e-03
4.085100372289530296e-03
4.355642559573682376e-03
1.076570342725917959e-03
6.062445247672206168e-03
5.457125940770024553e-03
8.301516061080061251e-04
4.730313395159271503e-03
3.627747495090126190e-03
7.835592865985740530e-04
2.453941348573039204e-03
2.759145601357853878e-03
3.178858799611120056e-03
4.768265739341082977e-03
2.151277548647985167e-03
2.919538006332516710e-03
4.298702853579705781e-03
4.241049328520395123e-03
8.150321939422614653e-03
5.282988870800981417e-03
1.506516324593823886e-03
5.825264894416574794e-03
4.447270844901178230e-03
1.775440498693602563e-03
8.910305248450643397e-04
1.434142829277341036e-03
4.352943392562914210e-03
8.393396874199597277e-03
4.861015985911730508e-03
3.085859367392172498e-03
3.087330091579573894e-03
6.736317237401446938e-03
2.210187924173856976e-03
3.590766905226263316e-03
2.056122572175904818e-03
2.874717148546875479e-03
1.938007203857139340e-03
5.055496472797579334e-03
1.797447862126030265e-03
1.626402904615041828e-03
4.294279310497812162e-03
4.108173087600552366e-03
5.576282429616650528e-03
7.151459843165290826e-03
3.860867791971001398e-03
3.639248418285148147e-03
9.314063331683488864e-03
5.632951252254565083e-03
3.477265251556602480e-04
3.673003994275485067e-03
1.025622648107837702e-02
3.707378355562143419e-03
6.233345497923901274e-04
4.931815418268151651e-04
1.244628101282419094e-03
7.928701461301727524e-03
3.673815961558364162e-03
1.603572626036745170e-03
2.954292174473528796e-03
2.294849705881335869e-03
5.840057253502557548e-03
4.343455362231156934e-03
7.703467778096932672e-03
5.030025036003524415e-03
2.248417510540279274e-03
6.448231317187813789e-03
8.228775016742389398e-03
3.893571301092388619e-03
4.580101594055444210e-03
1.162859680396005624e-02
2.193555886149002078e-03
5.313609875892090148e-03
4.623302011324611528e-03
2.310757813383768414e-03
5.038125473724804244e-03
1.354226516441996197e-03
2.877511889311467046e-03
2.752139022387119736e-03
1.974518728041238600e-03
2.592493753193992386e-03
2.305497024834886419e-03
2.883249380672324447e-03
1.496958307154905733e-03
4.110477764640199649e-03
9.140513152802821895e-03
3.943443692880944929e-03
8.756262745324651722e-03
5.168168598025391254e-03
5.935372297321881915e-03
4.480607504637532448e-03
5.324727359598252670e-03
5.016580983535610244e-03
2.201222769964668053e-03
7.422355544783362357e-04
4.159036317049369033e-03
3.477412156057834228e-03
5.701617261012666962e-04
2.109171121640214357e-03
5.303647632640009699e-03
3.206246399678157593e-03
3.102739881390498104e-03
1.315808991459226909e-03
7.462216337827609451e-03
2.644982583884604010e-03
1.344335094083360348e-03
2.039371181644153170e-03
3.919241497786218019e-03
3.195109968272457669e-03
5.864539583067472986e-03
6.136691791587546053e-03
5.127739657970111636e-03
2.604704288564790773e-03
4.721651634386462085e-03
2.772883245101787249e-03
2.642467991625849048e-03
5.054779693057022925e-03
3.910676728007484240e-04
2.958465921322409823e-03
7.040169277695296213e-03
1.824259976688923047e-03
5.544908469791937425e-03
2.318354576534361385e-03
7.347188989713779837e-03
2.378096458686446580e-03
8.920141644590946078e-03
3.511298449378041659e-03
2.397034704432312539e-03
5.624822651984908578e-03
1.333910472185804129e-03
1.108247148627831535e-03
5.007867436239763111e-03
1.671615769568117775e-03
4.554307174341919867e-03
1.574834180015774205e-03
3.158225198355694898e-03
4.819846473623064405e-03
1.206102955345110007e-03
3.481788716791352819e-03
6.980270956184944815e-03
2.848855605147630754e-03
2.037316577130736817e-03
5.320181073323196688e-03
6.124390393879075578e-03
4.242221646840816165e-03
4.830199724659090844e-03
3.783186118078385191e-03
3.469214061990355102e-03
6.107286892664699068e-03
1.791743901101394395e-03
5.291515337738626236e-03
1.005956072850455220e-02
3.413581396406383580e-03
4.503496965355727709e-03
3.391860475222133794e-03
2.388906117332653244e-03
5.006978463031906690e-03
1.898050888042586599e-03
4.116490685712278184e-03
8.017454751867013341e-03
3.178945994748058525e-03
3.560797675127556818e-03
1.528887521813356454e-03
6.994810185475468928e-03
6.832112726261739544e-03
3.635519870247002749e-03
4.664400255957061939e-03
4.674804124380631948e-03
5.993538344878816988e-03
5.389362574771861154e-03
1.839920587911661074e-03
3.634285013282267766e-03
5.483199769519827432e-03
4.991280326177972501e-03
4.237582821557861826e-03
1.019256975836138309e-03
9.017637408254911002e-03
3.091364611200372848e-04
5.224555967663450755e-03
2.818941477249832257e-03
2.678033292059381256e-03
3.642685814658481840e-03
2.366158183628032201e-03
6.293196100734322826e-03
3.738478766082658621e-03
3.919344336409479219e-03
2.849284631531694666e-03
4.288866454617026001e-03
5.059456116595479301e-03
4.471667822544297781e-03
3.213617389739909392e-03
2.706555493861753387e-03
4.545228013618625440e-03
4.271908410799930139e-03
5.093533456990780202e-03
4.736100555826893224e-03
1.773906568678516177e-03
3.310013366067916969e-03
1.042145074847431602e-02
4.739737194792249982e-03
4.020624370328734244e-03
3.885240358425007864e-03
5.711312713730887398e-03
5.198694922254075423e-03
6.192785784335332923e-03
3.699626974822286390e-03
2.047121084601066874e-03
5.659019826715771953e-04
2.461255789345891468e-03
4.765332310212106598e-03
1.377012362741871420e-03
2.610506352517566204e-03
8.320411819576286824e-03
5.762362997600191730e-03
6.143192459485266252e-03
3.485629687063662545e-03
6.234657487378228490e-04
5.543641038312029090e-03
3.340457781579132812e-03
1.042053106044633567e-02
2.634009305325511058e-03
5.398261288941935167e-03
4.157127488906505602e-03
1.801750889749203100e-03
4.296657883336832233e-03
1.739540569319966310e-03
5.466411972986749343e-03
6.357229008836972652e-03
3.976574462201890557e-03
1.133223571161707816e-03
2.058757763947866807e-03
5.982449714755240164e-03
2.507815373174537756e-03
2.638537571393425891e-03
2.217150457231220530e-03
1.453774320822707501e-03
3.100629794119964377e-03
4.014223298058232532e-03
4.601872563405963283e-03
4.405554031145958969e-03
2.565468971319931606e-03
6.514227854581884462e-03
8.343494186265448505e-04
5.022766110880138093e-03
3.287400709356544642e-03
1.524007142380335135e-03
5.811317805955121089e-03
4.071711658590525425e-03
1.355070791610910605e-03
3.251183709512705036e-03
1.093537802706075765e-03
1.306318835898606732e-03
4.382283086048298533e-03
5.919490380135571800e-03
2.385791408638468503e-03
1.932458311961087784e-03
5.799165985853883994e-03
5.293531305847222306e-03
6.050319783519029354e-03
3.424378439675573350e-03
5.438769781178952670e-03
1.889190816436555958e-03
2.874882953946875097e-03
1.913545933321960735e-03
1.479737221932044206e-03
5.453800542564863881e-04
3.065794055642281739e-03
3.643211641985036244e-03
3.333424076911971779e-03
4.476307228545208482e-03
3.762211583256258943e-03
5.442345890785758866e-03
2.726188605859624237e-03
5.083179617734602355e-03
7.600742791155747427e-03
5.638306923503696305e-03
1.235556193615679112e-03
6.031337712420264605e-03
3.079963015197086009e-03
2.806013406641817871e-03
2.485364783500207744e-03
8.592998382603803803e-04
5.312760790201677017e-04
3.861656493550639797e-03
2.356807502140661342e-03
2.972122699135085113e-03
8.260387918982649205e-04
3.939617014528115115e-03
6.615454185720329519e-03
3.652019128881207194e-03
6.800467494866250552e-03
2.019444866103743859e-03
1.945435097373034465e-03
3.028696298833825299e-03
4.774973254269440637e-03
1.364316366742126651e-03
4.815213859319762528e-03
3.128364269352556550e-03
3.541549253858793100e-03
2.415061694325191556e-03
5.374678717101752032e-03
4.594072603711424861e-03
1.665121228134604182e-03
4.102728849190308280e-03
3.470766575648283944e-03
2.879882176803133607e-03
3.221624970553306749e-03
3.998112234489655838e-03
5.669883425803447750e-04
6.663272152939180015e-03
1.047154103933062037e-03
4.667639940145220691e-03
3.208914179703340093e-03
3.707794822624641516e-03
3.062572576659180860e-03
3.654142479752677669e-03
3.346062078603185500e-03
3.983912724737158351e-03
4.852927681992987193e-03
2.859443806382802686e-03
2.979532469655036663e-03
5.813402058524138293e-03
1.590114408277823552e-03
1.615978431243349309e-03
2.843180044163444442e-03
2.283649183417111369e-03
4.839860833921986669e-03
4.548558427595958062e-03
3.147762233167586497e-03
4.817534347466193023e-03
1.599368398741456403e-03
5.152888365665397701e-03
1.188905868384137685e-03
3.481953887076203163e-03
5.972707310013734144e-03
1.650168030723912814e-03
7.336776985702782999e-03
7.503540131854283951e-03
5.331838898003434836e-03
4.478340580097469985e-03
4.615754316110732766e-03
5.340783787392561731e-03
2.887326045057821144e-03
4.813835960026991746e-03
6.720708616799680492e-03
6.621974024102222044e-03
5.444497980054261235e-03
7.503088843484521583e-03
5.162753533121203393e-03
4.719987643897438981e-03
1.012096110851935793e-03
2.490865627102935211e-03
3.346105319596389110e-03
5.677246517610739368e-03
5.478331760681283066e-03
5.225266709346868682e-03
2.623885062365433410e-03
3.629795859825728308e-03
3.307649050086923070e-03
3.401343513498500479e-03
6.102465651947272703e-03
1.275476735162226231e-03
1.562060254356891983e-03
4.166844449256515079e-03
3.696581120995396427e-03
6.959457892472833973e-03
2.493050188415215848e-03
1.145869223871304621e-03
5.895086358731474983e-03
6.727850067156858696e-03
1.021716268479135915e-02
5.941625305361720143e-03
2.481092202958723892e-03
5.503104809703626178e-03
4.053257705509768008e-03
5.774107373179679543e-03
2.790595842103863519e-03
5.971572414341365549e-03
2.556917963545152651e-03
2.852966884999298420e-03
4.354596814812768980e-03
4.068465820128341383e-03
7.809652496460871155e-04
7.940102632463660534e-03
5.960004057198590999e-03
4.079137600972370867e-03
4.779192615985624303e-03
1.426174772983471607e-03
2.993605689640718107e-03
3.819080114262704204e-03
4.798624299450499585e-03
1.831110306952116662e-03
1.750694115393689734e-03
3.318978137217352704e-03
4.798699249921431660e-04
2.790247108320523164e-03
5.991119540029528519e-03
9.901399558292275221e-03
1.008499343628248843e-03
3.012586863190756543e-03
5.138187332228517923e-03
7.707157065082924363e-03
6.040309998759540999e-03
1.776551833973659140e-03
2.405813939005034020e-03
4.143860833986460698e-03
6.771901773733011998e-03
4.499472711147303391e-03
4.594252746268134152e-03
1.159354819629924505e-03
5.736687203297981610e-03
9.837807872542634127e-03
3.490004472599461845e-03
2.696434796134284089e-03
5.872997938124511694e-03
6.050657393590704383e-03
4.155142301646837406e-03
1.952157643619658808e-03
1.229544153488234875e-03
5.947049450154752274e-03
3.848663863613082086e-03
4.917954523202643959e-03
1.259357244364867111e-03
6.053494085422278168e-03
5.225959792962923262e-03
3.499660775540907893e-03
4.006183555262393323e-03
2.053944907055149996e-03
3.485758631132146370e-03
3.523531347439586101e-03
6.285052118251053220e-03
2.344869263781316528e-03
4.925428542760360885e-03
1.880151739440518192e-03
5.405225832524057986e-03
5.237632554729023011e-03
4.640250355632203651e-03
1.961669608776749583e-03
7.061073553124096180e-03
3.714039830660586464e-03
9.758193066886562987e-04
6.509989456926983976e-03
4.704317970406995605e-03
2.265145954893072258e-03
4.273915154875857457e-03
5.191241396152375745e-03
8.638841045407260819e-03
5.906621239352846491e-03
2.822927083981377656e-03
4.850650705491071565e-03
4.258813780549960785e-03
8.245143589303283171e-03
4.124403867155882267e-03
3.561813960626810348e-03
5.029001723243777325e-03
6.516061167351037617e-03
1.048840449081273572e-03
1.236936970356093983e-03
5.733429233906039459e-03
5.863613168260638220e-03
1.946557571908447484e-03
4.231267003497023345e-03
3.124968799537370008e-03
3.692724700606381597e-03
6.466449611601420532e-03
1.846003296395852446e-03
4.511094733673912636e-03
4.221564477099465536e-03
6.920755220672014305e-03
1.481011214320880664e-03
4.309538722354053220e-03
7.426011818492600676e-03
6.225117031166848246e-03
2.492822601266248602e-03
3.488261290496308745e-03
3.641964005885667960e-03
4.123687598945989389e-04
1.292189917268617193e-03
1.931845094623718109e-03
4.639741994170505646e-03
7.647992215681008801e-03
6.327078431867189448e-03
2.849854965950160326e-03
4.778454596566055791e-03
3.954641411893134242e-03
2.910606522560167490e-03
5.842436955516737244e-03
1.683202076361811151e-03
4.385489833672265997e-03
4.892354256444040282e-03
4.575845276593649286e-03
4.292018227756331031e-03
4.779302253059884709e-03
1.146402741217574439e-03
3.205675942263319297e-03
2.373697093228426848e-03
7.759102033001594872e-03
3.426018965073132378e-03
4.636834486673130015e-03
4.922821967998568422e-03
8.447437735456833586e-04
1.221031036414080978e-03
3.778637791179356459e-03
2.545598591581562428e-03
6.356038994962921566e-03
5.626643836318703275e-03
3.854882707552318398e-03
1.588071819388677929e-03
4.074574300101202647e-03
4.277770905316356786e-03
5.629112495022316892e-03
5.639423782997582749e-03
2.898594853690619928e-03
1.236247997296419706e-03
1.950080666090973480e-03
6.913756651426109304e-03
6.257306937660990324e-03
4.685597788152532500e-03
6.813903560911205998e-04
4.150376953655451374e-03
4.234852094872988693e-03
2.184568230879151748e-03
4.830959202081476674e-03
4.207830442327077820e-03
4.276961047721699119e-03
5.130830015220252428e-03
6.330402592914631185e-03
1.972553864505490785e-03
3.269934805706942518e-03
8.904528829768233386e-03
2.520688753862374530e-03
2.215018954502732517e-03
5.136396882295870582e-03
3.021411244888648744e-03
1.058138930506274944e-02
3.026842031900357863e-03
1.842395636426083635e-03
2.445693137023966044e-03
2.153730139387357526e-03
2.914586989508213908e-03
3.022845836463265105e-03
3.041086289700352385e-03
5.784595849283918380e-03
4.982939757970542699e-03
4.396546120912229322e-03
2.351900821824591103e-03
5.735938467455626612e-03
3.012419671058606373e-03
3.970341561031312180e-03
6.561913903620136997e-03
3.245726463086036524e-03
6.935104466929992162e-03
4.838203960092467455e-03
4.369231391400032506e-03
4.504488364286050178e-03
2.009000972821434888e-03
2.021943174874527190e-03
3.534312874015793290e-03
1.969660809243101163e-03
3.176665045052533710e-03
6.411161330690117073e-03
4.146069998276342289e-03
1.945105772258189395e-03
3.837173568427669230e-03
1.077816639032847836e-02
3.275417140276242964e-03
4.603977487872171898e-03
3.191588496565815353e-03
7.175975379416358810e-03
2.693640358715934744e-03
2.951211310870550681e-03
5.932979224754515897e-03
3.084725535731056706e-03
3.102742552299734072e-03
4.194408771415751754e-03
1.270412665480681906e-03
5.714446087964600643e-03
3.913959723632793285e-03
3.256613942757393635e-03
5.285000168106665508e-03
4.527525614785688629e-03
9.515012344758449862e-04
5.022556864373263139e-04
8.470814553812603537e-03
2.383473931081130266e-03
2.584155408755831138e-03
5.747920277980314227e-04
2.647984633114092764e-03
6.749694752432391226e-03
3.692867220437843177e-03
1.687820403961744513e-03
5.244156275076069379e-04
1.993711778794759592e-03
9.225741226851005838e-04
3.697941532968601706e-03
1.991869571533814911e-03
1.657976499646110317e-03
5.057366409944233712e-03
1.732162457646639533e-03
2.241247387948643293e-03
1.752273225070993465e-03
8.143367963682601046e-04
4.662396169570561660e-03
2.644360033101718528e-03
7.389101182727382403e-04
5.428427955816820215e-03
5.190804352871029089e-04
7.469115469500240898e-03
5.186929409398426463e-03
2.425875870307842366e-03
5.468189485272887881e-03
1.335119114420420684e-03
2.281029878287901564e-03
1.264713762168909357e-03
4.988011737132817987e-03
3.596805444347920232e-03
1.077905096681713078e-03
1.916477337037712173e-03
1.280202597425468937e-03
5.037304161887213964e-03
4.497346586915467771e-03
5.889087180884118762e-03
1.848978026235244048e-03
4.405148606103745541e-03
3.372036126797724794e-03
1.399113352640497972e-03
5.737008649118857662e-03
3.520327834737920457e-03
4.748371051139207814e-03
5.279996746695761987e-03
2.463540223051825882e-03
1.785512171546039476e-03
3.871647832739210249e-03
3.940405038492473221e-03
2.264254755015027328e-03
2.421324203393211867e-03
1.123674116748035572e-03
4.742984224917787955e-03
4.836827245552752751e-03
1.663487946976958389e-03
6.118341452204213542e-03
5.461929080593294974e-03
4.089114974732401160e-03
7.277484043179849316e-03
4.273481235280533752e-03
5.734151420873417546e-03
6.526430843894307464e-03
6.358998674757060376e-03
6.896668820192420821e-03
1.350695408049494648e-03
8.161977896231575880e-03
3.512999013049221148e-03
1.269921721718266124e-03
5.566911974357807887e-03
3.422821033182433300e-03
9.432287275147299395e-04
5.296621905809695968e-03
4.624336789975142317e-03
3.232819358367420431e-03
1.608205631505839730e-03
8.650734634453457420e-04
3.842938707710449008e-03
6.323625691828379559e-03
6.627166729327816329e-03
3.675718317389332825e-03
4.213221219919529269e-03
4.338341315583049175e-03
2.572993679391226418e-03
1.707263277819299780e-03
2.640127340274397126e-03
4.260271679693278593e-03
3.529905686694161451e-03
1.465176885799610203e-03
5.982239754110649232e-03
3.333600935090687972e-03
1.326002792980454691e-03
2.824742434351626592e-03
4.291677445210678038e-03
4.994159953555639582e-03
1.965114083712586352e-03
1.393410776162085215e-03
3.892956800287294267e-03
2.194033431036910772e-03
1.213032030236817129e-03
9.604442422135981046e-04
8.628349463418664989e-03
1.470294538979597526e-03
4.384390203142474358e-03
4.018022183831627438e-03
4.598177740235800774e-03
7.259594994145943808e-03
2.283336808752802535e-03
9.281519684561681765e-05
7.719453886637256054e-03
6.165197024677538523e-03
5.258155037237834811e-03
3.384081771393114037e-03
5.376862724155839941e-03
2.693769841461104292e-03
6.602973390765438716e-04
5.329146149047660382e-03
2.214934343233028805e-03
3.653371227839300687e-03
4.131024073007184241e-04
6.091927200137657768e-03
3.365607385313408410e-03
3.159479179864167590e-03
4.799636932131604028e-03
5.753302446715020946e-03
2.036634913644668442e-03
2.523620202336053150e-03
8.547403631196273492e-04
7.728319765228683358e-03
2.521867276706403135e-03
1.945959527562044541e-03
2.189819108169789499e-03
6.294426050534472107e-03
3.070235179305175460e-03
4.799568342618235582e-03
1.114172154089359190e-03
2.093446315722939655e-03
2.647987781565522888e-03
3.290058137070169236e-03
2.810659338486395237e-03
2.055302527531003155e-04
2.744539026058293377e-03
5.515347256493914954e-03
1.701524475109760176e-03
1.450148068089766092e-03
5.145188111420136330e-03
3.263058762704627424e-03
4.300088014751805333e-03
2.146825350983813836e-03
5.967839065112264495e-03
2.617919035518211871e-03
4.873413971207669025e-04
2.562230766807672023e-03
3.828251266764479393e-03
2.855736298332820031e-03
2.847799280952320253e-03
4.700032961724300712e-03
5.715116282612535924e-03
2.366278640061769082e-03
3.733801236067062733e-03
3.103602841436538945e-03
2.787111887597748441e-03
4.456758926630902985e-03
5.517565703000604227e-03
9.461899315811478708e-03
3.782773005639719719e-03
2.174477281800214420e-03
3.957721901595078091e-03
5.511813644327665830e-03
6.186171509545353685e-03
2.537987222816184135e-03
2.889589905474207465e-03
4.205647232700292053e-03
3.422542696740669705e-03
4.240924844877665308e-03
5.011104226585508768e-03
9.143127122572616578e-04
1.487859796494580156e-03
2.264719734435503840e-03
1.670821496995511871e-03
1.071275354331456976e-03
3.124689551177365840e-03
2.311050198004585207e-03
1.798486543899560988e-03
3.347274438575143125e-03
5.794545999491321209e-03
5.811120395226860268e-03
7.286226335943928739e-03
5.488006488544995391e-03
