1.563075331609409390e-06
1.644859461121017639e-05
7.976091204298811144e-05
2.361953824122235213e-04
4.773524281605073805e-04
7.228121186187852357e-04
1.029286736251464876e-03
1.920498626330199160e-03
4.125148996627838772e-03
7.361861988825035667e-03
9.655733656229400358e-03
9.033003810105324355e-03
6.104301578587374537e-03
3.733641050419381994e-03
3.653989753051241005e-03
4.569708860463527270e-03
4.266009229029513530e-03
2.497914600902995715e-03
8.810013764165669330e-04
6.957000665983351876e-04
1.695488942066201944e-03
2.726199659002493097e-03
3.017857752455852492e-03
2.982728988081481680e-03
3.667746165091065758e-03
5.247161943071025104e-03
6.550980886752848752e-03
6.510871981203926809e-03
5.547647359933050547e-03
4.955127435512805649e-03
5.281552065584781651e-03
5.978226361988210787e-03
6.564281746948721560e-03
7.415112691739395544e-03
8.924318897965638139e-03
1.026887551692481047e-02
9.883319008584710852e-03
7.458306235073470722e-03
4.783979913003743624e-03
3.950460294758461818e-03
5.042938541625489532e-03
6.276604151362687872e-03
6.182442165621982941e-03
4.873456215193487130e-03
3.201789717231829941e-03
1.637093430331207572e-03
3.800441074132495278e-04
-2.088353115822900682e-04
-4.458693609487160349e-05
1.002221085213925324e-04
-8.720659677806032618e-04
-3.143948449858163015e-03
-5.702947608249568645e-03
-7.518741316315035589e-03
-8.570805105950603242e-03
-9.364414917635793464e-03
-9.923035646981220523e-03
-9.817903315715414969e-03
-8.866639427574367349e-03
-7.294473018403621611e-03
-5.409608583367967426e-03
-3.396934719780364542e-03
-1.187849780135522958e-03
1.477693679770599811e-03
4.417521341402654185e-03
6.574796140038928309e-03
6.926115248604008089e-03
5.835466782830181845e-03
4.831059020139606523e-03
4.915330024064231383e-03
5.636208311756156671e-03
5.967486811094957835e-03
5.546652640615137332e-03
4.660032238743842120e-03
3.447839386803896924e-03
1.842930910795635962e-03
2.511491046429806316e-04
-4.712572708071122943e-04
-2.525095051228882235e-05
9.156660182149735676e-04
1.759226068951598356e-03
3.062426546800263959e-03
5.854416150409292967e-03
9.890855087228726458e-03
1.324451492576295304e-02
1.402069450929670051e-02
1.220676643865380682e-02
9.481781311997627276e-03
7.312440462169487489e-03
5.661907443840456453e-03
3.782606496279522241e-03
1.905983198493649885e-03
1.435093920724570286e-03
3.161877132415669579e-03
5.891644462218271171e-03
7.654063372640584201e-03
8.002206275610471500e-03
8.035318090857911100e-03
8.226893926898449366e-03
7.678260417714067448e-03
5.972615503996600225e-03
4.387931008182971958e-03
4.339034799669233035e-03
5.455497053651716007e-03
6.101838729071885382e-03
5.361135488959873838e-03
3.804797165423520755e-03
2.498086740844109640e-03
1.733992365888539474e-03
8.144478886097948405e-04
-9.464733275933796992e-04
-2.989332674472177688e-03
-3.647169001776532065e-03
-1.987107584648552770e-03
8.038856930246416396e-04
2.665711136882524274e-03
3.145236051800388670e-03
3.631827086286974759e-03
5.100996026790405834e-03
6.813295504197180129e-03
7.588250937354192038e-03
7.276029337006392241e-03
6.473602242171142690e-03
5.654453005189679672e-03
5.084042936390238340e-03
4.980436488662733953e-03
5.291624376036366088e-03
5.612654841848334873e-03
5.609390902425907127e-03
5.378796782588081936e-03
5.233082803120864962e-03
5.201437038691409179e-03
4.857411659270318739e-03
3.769892598197393044e-03
2.298117083216962096e-03
1.731692667717397169e-03
3.020075268171704564e-03
5.267538536910910257e-03
6.206236569413892297e-03
4.618869087000797465e-03
1.941671221897627508e-03
9.591749345721241457e-04
2.819383249534923933e-03
5.664689640689567034e-03
6.510668440502797270e-03
4.250095886041078790e-03
4.102133656257920505e-04
-2.789454527240262105e-03
-4.445705275865811414e-03
-5.065186488944001773e-03
-5.470518935522743209e-03
-6.018409160902134236e-03
-6.447684120510092758e-03
-6.204776141016751616e-03
-5.174525781220571004e-03
-4.011471773570182697e-03
-3.300267584074095470e-03
-2.559155012582887447e-03
-7.319630489777007726e-04
2.285159773468989526e-03
5.173777674808813926e-03
6.479588891724298236e-03
6.076837677154893654e-03
5.149466983452299744e-03
4.933695447585773226e-03
5.796299456836135310e-03
7.412088393487854983e-03
9.255433561714557222e-03
1.069981632800367718e-02
1.117877266559905158e-02
1.071448117690033779e-02
1.004664070081241929e-02
9.887087312839014375e-03
1.012619742405210764e-02
9.937671245038744855e-03
8.648660460810798228e-03
6.527546740679790460e-03
4.722502651412106497e-03
4.244153857575248302e-03
4.947541878111028947e-03
5.729924153448386764e-03
5.767236269108850892e-03
5.262840659869785949e-03
4.847042362337140517e-03
4.522464870768423857e-03
3.584254217860183712e-03
1.629002949206144945e-03
-7.670536817823795381e-04
-2.700730656132058552e-03
-3.924863249355637490e-03
-4.717476917724379958e-03
-5.062288714316824298e-03
-4.529824912260592591e-03
-3.026113971781073993e-03
-1.477568472567909567e-03
-1.564299727804094016e-03
-4.195118366455440929e-03
-7.836781398761292344e-03
-8.996658552112667476e-03
-5.326518161709069450e-03
1.785210042139921943e-03
8.269329329327555420e-03
1.091096708441938179e-02
9.561251762233541687e-03
6.406658955028408757e-03
3.822984425513807540e-03
2.940460392317355027e-03
3.743418195322703850e-03
5.778045010013437878e-03
8.056284053413438964e-03
8.711028453949278341e-03
6.323187424110007608e-03
2.192353659507006482e-03
-4.286511870022708049e-05
1.775495682667160629e-03
5.627253550446418943e-03
7.608841747893462307e-03
6.431946064159615138e-03
4.375971793318331367e-03
3.968044532872763708e-03
5.122930571474505236e-03
6.012433913669340026e-03
5.691308019255030687e-03
4.918982289157257728e-03
4.742170092782471355e-03
5.165563411490211448e-03
5.388360279300108240e-03
4.767344886480152921e-03
3.254675456403751874e-03
1.318286502467129646e-03
-2.353413904484015246e-04
-7.123993357970264230e-04
-1.816692602636069153e-04
5.124139253758763779e-04
6.238344923443659915e-04
2.173573833805107953e-04
-2.001216328072831540e-04
-5.927306414271621155e-04
-1.563895455877265884e-03
-3.488990715917893084e-03
-5.835230738386975972e-03
-7.643278275043783633e-03
-8.276019061015972567e-03
-7.273417733520701547e-03
-4.155949414008019635e-03
6.085195489395700888e-04
4.736088176226787780e-03
5.534999013840723354e-03
2.743208978040375702e-03
-7.962125952556176100e-04
-2.056531497234221576e-03
-1.021136649674686189e-03
-1.214558324220546076e-04
-7.622889735990407605e-04
-1.654867341144813106e-03
-8.748513670120277056e-04
1.822810134748932510e-03
5.556531620420781560e-03
9.750224428567474955e-03
1.358691478505140958e-02
1.518398280158102763e-02
1.325656341911417117e-02
9.239201488391132061e-03
6.129538504007036974e-03
5.336656637198649265e-03
5.907205118983976759e-03
6.508483506062850282e-03
6.724820640731382290e-03
6.513353604862224047e-03
5.873283645681509103e-03
5.433660261486669002e-03
6.270440644245530576e-03
8.427377371713297080e-03
1.010066614842431050e-02
9.052043862736815216e-03
5.004279393124554977e-03
2.407864401835894703e-04
-2.592137799396395000e-03
-3.136008908704793728e-03
-3.231011338310626688e-03
-4.274325769920907236e-03
-5.613732735657048917e-03
-5.977989316914484631e-03
-5.628592584110500389e-03
-6.127988469411241659e-03
-8.065614816915726501e-03
-9.782096170411634997e-03
-8.869551832209198947e-03
-4.884001701152513447e-03
-1.750661923728040275e-04
2.332642038492383982e-03
2.143897283123330413e-03
1.549487185273953948e-03
2.837950255776197639e-03
5.790893883740256404e-03
8.458790070872797967e-03
9.709789179614765689e-03
1.002501926632155989e-02
1.008882369589082263e-02
9.597125349712848710e-03
7.629017257463162859e-03
3.790776596581333854e-03
-9.577427851299965319e-04
-4.380853506005605129e-03
-4.261564365471244217e-03
-3.248460203680545734e-04
5.038662467181791692e-03
8.421994058325674506e-03
7.988949837515538221e-03
4.484622651532318288e-03
9.699087696345212457e-05
-3.364310987726220389e-03
-5.453096714542367274e-03
-6.729940735038987369e-03
-7.748608640130903724e-03
-8.675504381311149871e-03
-9.776991988407254114e-03
-1.155760800734204063e-02
-1.401693807392906388e-02
-1.625616161667891441e-02
-1.721076139043388117e-02
-1.637570895203573074e-02
-1.366693778424285695e-02
-9.287669723397009094e-03
-3.996670570414406591e-03
1.192922774288358162e-03
5.740944576555289183e-03
9.387684831901423055e-03
1.147888675464786915e-02
1.149720402030608192e-02
1.026940224248212678e-02
9.669244716767581502e-03
1.073940155855208044e-02
1.258688148983166770e-02
1.344141675767741330e-02
1.248177646253118521e-02
1.034468245428511388e-02
8.203301350328524519e-03
6.729937651408537426e-03
5.673157180160875654e-03
4.235023406322955403e-03
2.271017540563109640e-03
1.009136427115965313e-03
1.687682457536377736e-03
3.596480537400847336e-03
4.731184870660466724e-03
4.434101924583338031e-03
4.006805557972895754e-03
4.446488230364240013e-03
4.850146116793328105e-03
3.647838463913148383e-03
6.477773063623370716e-04
-2.738089006236712510e-03
-4.884024827513750062e-03
-4.985100363866022503e-03
-3.005393776727750127e-03
4.269265769228337230e-04
3.682174470888182911e-03
4.547471955589169404e-03
2.043112390178539357e-03
-2.198215636849425950e-03
-5.027098233369642864e-03
-4.449665983929341866e-03
-1.110116403066330713e-03
2.614731385689567870e-03
4.631250842310162541e-03
4.488567274834231492e-03
3.399396929302971222e-03
3.057601217926704095e-03
3.973338343104805721e-03
4.841038502026584131e-03
3.881385357280128009e-03
8.009149819980227293e-04
-2.950863695972214939e-03
-5.832610150275938619e-03
-7.564611306458640314e-03
-8.643347421126218108e-03
-9.277648832511050866e-03
-9.639745142507724282e-03
-1.061091557738076500e-02
-1.292284031400224922e-02
-1.554017311590995092e-02
-1.609907509046854673e-02
-1.322353786143341640e-02
-7.679659343659718876e-03
-1.389698263351642985e-03
3.732202533584345113e-03
6.161502630786446638e-03
5.472195455717132444e-03
3.260065336475311080e-03
2.261671624341122025e-03
3.731880888078814400e-03
6.418829335769708939e-03
8.719840950951168040e-03
1.084330848781000362e-02
1.387852781646191011e-02
1.755155101586836075e-02
2.011095071150285213e-02
2.015164135328659928e-02
1.771261313778416460e-02
1.383431918417683121e-02
9.791002733252517770e-03
6.647563148034270168e-03
4.902634670318036653e-03
4.284345642958850391e-03
3.959523806090416154e-03
3.131960022981326083e-03
1.781747448024795406e-03
8.512258333678307401e-04
1.291421254158189131e-03
2.898330783079096102e-03
4.499429445820462246e-03
5.216057810081502384e-03
5.134181609493137198e-03
4.829306318800979762e-03
4.600314065666920998e-03
4.174814510745239286e-03
3.040012087361095711e-03
1.156127949703099431e-03
-7.269589565845814994e-04
-1.844016270633486079e-03
-2.457490609589038644e-03
-3.501459211629486239e-03
-5.094408620891368623e-03
-6.174429726401737747e-03
-5.944449110069389454e-03
-5.006283401102764111e-03
-4.566155867653876391e-03
-4.957607911831510630e-03
-5.493693670100665075e-03
-5.612749599477942324e-03
-5.639695278466042884e-03
-6.173746056637964205e-03
-6.965958217946295085e-03
-6.894840705860573286e-03
-5.162447295941224347e-03
-2.017673676321568403e-03
1.854214447670073183e-03
5.928729904331019561e-03
9.455198720759599301e-03
1.129544659202470075e-02
1.090901741188095818e-02
9.088896074938563122e-03
7.149115509664629234e-03
5.782687824851962671e-03
5.153056574568915492e-03
5.397541830049103727e-03
6.224781531569709668e-03
6.581365002708214340e-03
5.719242871265391680e-03
4.337291048605591837e-03
3.813198392534440130e-03
4.451655423280916936e-03
5.230548775979704766e-03
5.239875087596657099e-03
4.702875775060811128e-03
4.405377530085864343e-03
4.616047451791275257e-03
4.926766382422560590e-03
4.950919799666966999e-03
4.857048428085551477e-03
5.219442471464097281e-03
6.400116262162497405e-03
7.901515639519875872e-03
8.413562428285640757e-03
7.060567482849252133e-03
4.704239235262512413e-03
3.309555168804886351e-03
3.679736952365958089e-03
4.331916886117820505e-03
2.961046091146532760e-03
-1.194197102428395550e-03
-6.400620634712455431e-03
-9.426702554467324829e-03
-7.668619849765605755e-03
-1.231076202884342575e-03
6.602259657145641801e-03
1.151776664550708748e-02
1.141617009598906891e-02
7.598546286671267747e-03
2.991054074823187078e-03
-2.116882781577569697e-04
-1.290593549001369141e-03
-4.716964441831989212e-04
1.588910382248801640e-03
4.006827208408506730e-03
5.997369011370164149e-03
7.292347695864913673e-03
7.984316614026728751e-03
7.880722748421440868e-03
6.541714203270609235e-03
4.164695545071720774e-03
1.851454239099467429e-03
7.531271124534994485e-04
1.289125118107022116e-03
3.036426781147571162e-03
4.911905698105485142e-03
5.753353805395527293e-03
5.274275673777298855e-03
4.268713026950358980e-03
3.500435843419908658e-03
2.712345392568555474e-03
1.253478638111918050e-03
-6.316873026370035905e-04
-1.932729708015196385e-03
-2.199148858516773459e-03
-1.909592854396768282e-03
-1.579232472787612303e-03
-1.432520778465380109e-03
-1.929279394872371453e-03
-3.517188729525678233e-03
-5.687362286054013435e-03
-7.380744784546507467e-03
-8.772978474209280203e-03
-1.164463148102029728e-02
-1.707754007348136205e-02
-2.323774642504428112e-02
-2.650750716655981762e-02
-2.512921546109738238e-02
-2.110252908186426371e-02
-1.793414238940499450e-02
-1.688452992187466223e-02
-1.615364266501840770e-02
-1.366101971662938078e-02
-9.815786062420766428e-03
-7.147980130146253108e-03
-7.493194943403245177e-03
-1.000897074332811505e-02
-1.222002418524546774e-02
-1.259577781923446223e-02
-1.132450286717490845e-02
-8.941573427934331603e-03
-5.740535569990900568e-03
-2.744891706202782188e-03
-1.368249930706509241e-03
-1.098876261139486053e-03
7.320271395507061719e-04
5.157037391814967356e-03
8.841826718251372119e-03
7.489971507151545367e-03
1.624042771857105594e-03
-3.380274475488447613e-03
-3.487903772354381069e-03
-2.308981038183964226e-04
2.222371984810836074e-03
2.461331662616834861e-03
2.494254834917756895e-03
3.903985148922165839e-03
5.587619541343207506e-03
5.776304493420283265e-03
4.729701647565630676e-03
4.386218570312912235e-03
5.933680285314655786e-03
8.447274774382083906e-03
9.729654885830558986e-03
8.182435328187831133e-03
4.176985414625728095e-03
4.847690443948553590e-07
-1.775058821899604513e-03
-4.450968292135552102e-04
2.171667455882368269e-03
3.563239570124598736e-03
3.132830811093778155e-03
2.742876518013249911e-03
4.572917564559133077e-03
8.750734966623681735e-03
1.342911613218061850e-02
1.689489061269506057e-02
1.880517278505160900e-02
1.927512785381418903e-02
1.785635806882448010e-02
1.434498235735245930e-02
1.014530772847763683e-02
7.668325276873969205e-03
7.981271881515025757e-03
9.680740275970120198e-03
1.056482045942259800e-02
9.993616931399402353e-03
9.094573954653357994e-03
8.987932523930293807e-03
9.519833304279129785e-03
9.754746132650010670e-03
9.071724377889500701e-03
7.532477996018231529e-03
5.732906623316168064e-03
4.694346948475830276e-03
5.306976887461908356e-03
7.082104066630584387e-03
7.782898909459450357e-03
5.419972044760829923e-03
8.665253242091932803e-04
-2.459211961464612996e-03
-2.042126526378156351e-03
1.164808564336787186e-03
3.908497451491022880e-03
3.831963380596568013e-03
1.321111020087436085e-03
-1.371939052880905138e-03
-2.578810459874628352e-03
-2.692604472848599603e-03
-3.000907226206986876e-03
-3.494311961616114372e-03
-2.922240204651137176e-03
-1.099040572548658570e-03
2.033101132275207058e-04
-4.589870634374851386e-04
-1.759526429433270166e-03
-6.526705122828828321e-04
3.877335183455044975e-03
8.920347070632000594e-03
1.034261839404564121e-02
7.229596556344287939e-03
2.714536006562534402e-03
2.360158951849267378e-04
1.522061851446992130e-04
7.394690792472120681e-04
1.181863206251139225e-03
1.908288646338893819e-03
2.618835806301615231e-03
2.109522796095016257e-03
5.090507137746131316e-04
-4.481659922464661331e-05
1.923835388167034364e-03
4.871255281155350420e-03
5.738669118822750312e-03
3.444935214449972201e-03
-2.126008185747030541e-05
-1.851228891998569744e-03
-1.018374575005956753e-03
1.328073796115533450e-03
3.215810203715744730e-03
3.250642625834626511e-03
1.426995658343813622e-03
-7.567060674506251652e-04
-1.306294505592872201e-03
5.383029733118746161e-04
3.519879082778794733e-03
5.522347865499785922e-03
5.548571405404907099e-03
4.452443665869955901e-03
3.755302754972847986e-03
4.023965230120239711e-03
4.612886044752344261e-03
4.750217960137702138e-03
4.430642240331594296e-03
4.172540784446821492e-03
4.242097732207615948e-03
4.340525583264540424e-03
3.899578729664101608e-03
2.563126274208394912e-03
5.918500570952477937e-04
-1.100188328288107843e-03
-1.634864338324442225e-03
-1.147338294286265412e-03
-8.766330395577180299e-04
-1.994375272363887574e-03
-4.328199603758578311e-03
-6.474616208747958901e-03
-7.314590027414224691e-03
-7.054995582539159808e-03
-6.368304213484750689e-03
-5.163816158397036699e-03
-3.360892865708054594e-03
-2.439259092188620064e-03
-4.353254858532613902e-03
-8.405007671534755684e-03
-1.092007189290565387e-02
-9.289287851455716935e-03
-5.233991782385620170e-03
-2.568276094221177280e-03
-2.384953400833797997e-03
-2.185103967674405755e-03
2.692162152268532858e-04
3.949187495080518952e-03
6.149805113765129637e-03
6.006872113022261594e-03
5.181469133393424090e-03
5.170405540836122728e-03
5.184405493012090790e-03
3.426046458629862252e-03
-3.111923713106925452e-04
-4.360602674599747472e-03
-7.089535956219778813e-03
-8.052133134293124744e-03
-7.549991496485578164e-03
-6.216203742733571701e-03
-5.038417551938258881e-03
-4.760557944811879237e-03
-4.962752132275424950e-03
-4.444012571439208241e-03
-2.966091555718384197e-03
-2.112414587333064087e-03
-3.683899856126560731e-03
-7.302681890871209371e-03
-1.021161753698882589e-02
-9.637827321809537204e-03
-5.217121480292031752e-03
7.200728893322496478e-04
4.934285702857478008e-03
5.448774528770103202e-03
2.435055663103909227e-03
-2.487222250710368569e-03
-7.417104649547354156e-03
-1.077784437308034263e-02
-1.154455423722459961e-02
-9.627530355124883088e-03
-6.039819247724550165e-03
-2.200454707372909938e-03
1.058548515976424865e-03
3.565418140253092012e-03
5.190594410464643808e-03
5.900504390673794522e-03
6.367863908873818736e-03
7.610970753429526121e-03
9.710013507132445390e-03
1.141069847031553688e-02
1.114493905207023308e-02
8.175640586094467741e-03
3.049333974044210298e-03
-2.517623689700464358e-03
-6.410064571020084555e-03
-7.499405197499788012e-03
-6.587192007713150825e-03
-5.729403384233490611e-03
-6.269088949691648156e-03
-7.449829132767965718e-03
-7.148175550949563417e-03
-4.026645155138176314e-03
1.248093197036404802e-03
6.860651795665326756e-03
1.137677369447645005e-02
1.421203306278148379e-02
1.518876884341822942e-02
1.427185524019901515e-02
1.170362859242580177e-02
8.164995880982081969e-03
4.813699136537223644e-03
2.941557676992508953e-03
3.129489847624643706e-03
4.767762875690253858e-03
6.730407620600559540e-03
8.341772542370510385e-03
9.421204473790037448e-03
9.836166319116001339e-03
9.565211547871313100e-03
8.935746375910540162e-03
8.240143896464094050e-03
7.247402170092458358e-03
5.646947444484182350e-03
3.922804385097560832e-03
3.141872354041432003e-03
3.729129513211876940e-03
4.989917104825789505e-03
5.952690247401267939e-03
6.128096586252780240e-03
5.313573682199763080e-03
3.178178884149836063e-03
-6.006452817627711211e-04
-5.685318292946602708e-03
-1.062813803546213201e-02
-1.374602510243238054e-02
-1.506622566062781714e-02
-1.678454925222879618e-02
-2.078751973357294974e-02
-2.597772232559469527e-02
-2.913202137828385316e-02
-2.867057641493136327e-02
-2.665333048714222525e-02
-2.623689068276710903e-02
-2.780527829446368879e-02
-2.890164396806020608e-02
-2.772947737613569441e-02
-2.512469896928390747e-02
-2.256805990959381836e-02
-1.950719105508845821e-02
-1.394372357456198468e-02
-5.569245923139100329e-03
2.911805726787562807e-03
8.338776190125582813e-03
1.034802519945937291e-02
1.129492290303891859e-02
1.333834451879143887e-02
1.641084352257468626e-02
1.889745745779444416e-02
1.951825759729612642e-02
1.844340633035416316e-02
1.710231196059607342e-02
1.691796721788257560e-02
1.777489594313493709e-02
1.787686800299525397e-02
1.559528945647305383e-02
1.120528033107892098e-02
6.350556707383324916e-03
2.307398005293612771e-03
-5.266849592392478484e-04
-1.950332744512741972e-03
-1.793210461557000679e-03
-3.887410270604468843e-04
1.491067453991612533e-03
3.201598352775919532e-03
4.375674028718704034e-03
4.759024208416231042e-03
4.314145067079388184e-03
3.288458848495751270e-03
1.919599541545641578e-03
4.025520123354056233e-04
-6.834390344153780860e-04
-5.905640689344249196e-04
4.722123789961979348e-04
1.162412744091763503e-03
7.521008182721845067e-04
4.155878495005251310e-04
1.706304627542209670e-03
4.166805130513029191e-03
5.759619980472410403e-03
5.771308915147314866e-03
6.062004788901113016e-03
8.696165755044919440e-03
1.298802146204125658e-02
1.588005979747183008e-02
1.518441750769708790e-02
1.164944238320626997e-02
7.784782481205369462e-03
5.373809215175390751e-03
4.174612488879810186e-03
2.481295701175757328e-03
-9.613009375885490102e-04
-5.239097236398187335e-03
-7.803661919996828650e-03
-7.047052221305400918e-03
-3.898631787593610180e-03
-6.507527467559579525e-04
1.074123632954843881e-03
7.404871153248674537e-04
-1.717177164779579808e-03
-5.521861321970143559e-03
-8.220914265293160009e-03
-6.936037213517171757e-03
-1.506561851151453800e-03
4.393768246084310200e-03
6.392653626875009244e-03
3.561320106368054753e-03
-1.122415347534533574e-03
-4.051451567800810893e-03
-3.925452756339557238e-03
-1.699310338111632759e-03
1.123031593779281632e-03
3.471555497320409547e-03
4.634146226189217108e-03
4.179763929152232986e-03
2.278774015831241170e-03
-1.329954561161235589e-04
-1.883747350795586225e-03
-2.594232697404654561e-03
-3.171261566166060520e-03
-4.913352674097558326e-03
-8.052582122693580091e-03
-1.158697154165064594e-02
-1.463382760213288898e-02
-1.731361436972574108e-02
-1.981820560152740968e-02
-2.107135241239283668e-02
-1.914508200927804785e-02
-1.324665146677776566e-02
-4.988692632760238603e-03
2.584942695595656825e-03
7.218398704369947787e-03
8.590814324964899176e-03
7.634223529478544219e-03
5.553062682145025464e-03
3.691715428739255397e-03
3.411175189641110772e-03
5.213267735805454488e-03
8.129751377410017465e-03
1.057316549872668564e-02
1.190361462335858857e-02
1.274425845102202665e-02
1.363300925694092142e-02
1.394047354780206423e-02
1.257487688537902576e-02
9.328975659407488449e-03
4.867766772810516035e-03
-3.339803565778541009e-04
-6.025138681919516709e-03
-1.106640180888742234e-02
-1.364260353429504018e-02
-1.352296147196496885e-02
-1.327070879011584686e-02
-1.596619361795402481e-02
-2.184147085651282072e-02
-2.805528875032430730e-02
-3.185792399472078817e-02
-3.317977729818635813e-02
-3.374216950158987621e-02
-3.434074884906603703e-02
-3.401362163424822421e-02
-3.189678081069841770e-02
-2.870294345293155150e-02
-2.546258051637355704e-02
-2.156272396987855486e-02
-1.540411188450423359e-02
-6.943277060862011046e-03
1.598770289858688926e-03
7.879330541631653084e-03
1.147856631959342025e-02
1.343743127255624288e-02
1.450457621892203494e-02
1.456155955095212763e-02
1.336941514853723194e-02
1.103441046889071762e-02
7.814559147459657767e-03
4.157933846143050532e-03
9.727033707653522316e-04
-6.941826798980432495e-04
-5.798861035343905309e-04
1.342760062386494759e-04
-8.186338516083434486e-04
-5.350576399367172262e-03
-1.336188686216456534e-02
-2.225721260877389085e-02
-2.835364411650810254e-02
-2.936108302801281045e-02
-2.609797702595197805e-02
-2.202355700433431679e-02
-2.064358950235704870e-02
-2.262425036306685636e-02
-2.530905381667889614e-02
-2.551904112181636874e-02
-2.289916802891512129e-02
-2.005575038821978337e-02
-1.935136748580355837e-02
-2.022184606982605284e-02
-2.007300383381968589e-02
-1.724474123965928293e-02
-1.216527590608397144e-02
-5.705074884814567183e-03
2.242208517302483710e-03
1.158830348214949513e-02
2.022485693614108765e-02
2.489482319618109563e-02
2.445736728307859598e-02
2.164161899936553959e-02
2.079144869486901359e-02
2.380175145096014022e-02
2.848988990148453027e-02
3.078308374186682420e-02
2.831259733127000980e-02
2.222499635651722580e-02
1.592061188129537813e-02
1.203437602351204068e-02
1.047160308667941138e-02
9.177550670642783959e-03
6.493641133323450020e-03
2.707633462928910571e-03
-2.003100696762407274e-04
-2.324107669572099866e-05
3.911687897704902231e-03
9.734095025263787490e-03
1.385878899532214797e-02
1.351088148772024849e-02
8.964766211987032843e-03
3.281641272421390639e-03
-4.299372478129502009e-04
-1.550066054683827462e-03
-1.794545864730451778e-03
-2.943601405014284380e-03
-5.068081322020364689e-03
-6.759332319220629805e-03
-6.656337070527075517e-03
-4.684107605931118502e-03
-2.093718343253625231e-03
-5.217885554923532053e-04
-9.248227938038345707e-04
-3.201163676411840093e-03
-6.672902242519530153e-03
-1.069553614260287250e-02
-1.458338446807372173e-02
-1.727712836987785675e-02
-1.789011570555604225e-02
-1.682239005630994932e-02
-1.574971229294609351e-02
-1.614386026389426701e-02
-1.796599088019525114e-02
-1.970054132296187449e-02
-1.935077493321247025e-02
-1.568971766116588479e-02
-9.097879517826050824e-03
-1.194473010221790360e-03
6.526786672595029717e-03
1.347684361547604043e-02
1.919490357316101792e-02
2.223742373488298354e-02
2.081115026353727582e-02
1.515481910429947003e-02
8.779151152459913413e-03
6.133581790486582370e-03
8.554226230789838473e-03
1.300431194100579689e-02
1.513200221873768452e-02
1.330847748038610848e-02
9.595512426199206621e-03
7.196316402091024016e-03
7.366928259165433056e-03
8.786555961884321905e-03
9.517586508256712513e-03
9.044526497444103919e-03
8.231648998200485207e-03
7.769758509045659664e-03
7.370575187545956933e-03
6.587341652802779744e-03
5.741890631364950266e-03
5.452921274972581493e-03
5.552185883799707310e-03
5.185634268934147251e-03
4.070578970634272653e-03
3.031868090397759220e-03
2.953281404067664186e-03
3.632638197588096592e-03
4.119454703077857043e-03
3.935752214108376688e-03
3.484971470507385993e-03
3.257324275269054322e-03
3.005538192227408343e-03
2.002160156052964612e-03
1.674197756274479337e-04
-1.364660398364112058e-03
-1.417278329909043341e-03
-6.720993403244014761e-04
-1.535815068783870146e-03
-5.262524555705720350e-03
-9.869349370748920630e-03
-1.224324914229706768e-02
-1.205113725988697301e-02
-1.194869107294761756e-02
-1.363012884331470456e-02
-1.536065756127617983e-02
-1.454338199710677494e-02
-1.158544899201394834e-02
-9.620992533885510539e-03
-1.078079926704431438e-02
-1.416416430189833438e-02
-1.730067964996342966e-02
-1.810116207834448418e-02
-1.532779286967435491e-02
-8.929984200934111549e-03
-9.246207121684047814e-04
5.091224353722099451e-03
6.746405762741293326e-03
5.379219995620237484e-03
4.930189594083190380e-03
7.893390362338577673e-03
1.265865775030629824e-02
1.526250692730170277e-02
1.362607445541500623e-02
9.614870702748952100e-03
6.859673281458908423e-03
7.025529566023024433e-03
8.579775620569534550e-03
8.842358118281828591e-03
6.554692725995963851e-03
2.490060999999685158e-03
-1.675287725824899879e-03
-4.698331358105592090e-03
-6.385294939588483966e-03
-7.402600770606682264e-03
-8.581282544285129960e-03
-1.009354904732622134e-02
-1.099644329124048470e-02
-9.767841755074255922e-03
-5.838228656443386622e-03
-8.292770084878534412e-04
2.081465758865803321e-03
5.836585133983494692e-04
-4.696691526610689317e-03
-1.061202973630262156e-02
-1.418998835574105354e-02
-1.504728582198867903e-02
-1.507784843846571819e-02
-1.595704738169302639e-02
-1.759861698115460643e-02
-1.913106593796797331e-02
-2.033193929702151528e-02
-2.141486509168704158e-02
-2.220547009858744175e-02
-2.243481213979324138e-02
-2.240645938755524147e-02
-2.254128352407238148e-02
-2.249043937255307268e-02
-2.137282339865606562e-02
-1.878434548858273073e-02
-1.519360374834358499e-02
-1.158092028650604954e-02
-8.957643505827722966e-03
-7.853000043396484928e-03
-7.842800458762701904e-03
-7.795906867333789007e-03
-6.938497586048172731e-03
-5.479614275134008297e-03
-3.995620678720958850e-03
-2.733490565611595199e-03
-1.903975528767573372e-03
-1.858798804990302979e-03
-2.100948674422136678e-03
-7.632358188350410249e-04
3.628979555755992067e-03
9.876719457294923232e-03
1.464507495538763110e-02
1.561908483410925051e-02
1.349419739580692487e-02
1.059215720057668335e-02
8.184440421272804259e-03
5.747205037900806647e-03
2.512656301583575651e-03
-1.033122757137584866e-03
-3.661958942868684484e-03
-5.124323662191293191e-03
-6.407545480634469458e-03
-7.785386862693018627e-03
-7.505790494890098551e-03
-3.584512153467460296e-03
3.231605315037678044e-03
9.303815328986067557e-03
1.140808649541844889e-02
9.895317352813447556e-03
8.148674903042997866e-03
8.986077394762391479e-03
1.191912528343962163e-02
1.391090081057482462e-02
1.249029107984401046e-02
8.081480713763649140e-03
3.630537271299757486e-03
2.190885116580859170e-03
4.661884389640242633e-03
9.371738348286204681e-03
1.351975646603485910e-02
1.527498220195286534e-02
1.505042983079595519e-02
1.480066601645210582e-02
1.562795987134332765e-02
1.619081668693235498e-02
1.427237931352270256e-02
9.932223223520986882e-03
5.900211133883720774e-03
4.340855662468861252e-03
4.385478362693971156e-03
3.661351427415689402e-03
1.263999713713709469e-03
-1.776356426203143293e-03
-4.269806385356801279e-03
-5.965385513463636324e-03
-7.117666592453163708e-03
-8.142011926439693403e-03
-1.006459496576355209e-02
-1.423643121714759756e-02
-2.047385380091051865e-02
-2.589384510061015082e-02
-2.692883091761091863e-02
-2.275193656887686613e-02
-1.577569198767385730e-02
-8.600898312658561418e-03
-1.620161929579684666e-03
5.677874988671997858e-03
1.198063811453161688e-02
1.431626081062688932e-02
1.143741974284723760e-02
6.052062126225724731e-03
2.696802213890368838e-03
3.593431195826316329e-03
7.130369771265033726e-03
1.016259521752933305e-02
1.115213700811728756e-02
1.093587484625264603e-02
1.099375752086389872e-02
1.157840765599606539e-02
1.163234320077243845e-02
1.031168469826019424e-02
8.282244497624435819e-03
7.143350760248492332e-03
7.586016681737150352e-03
8.651768745187088036e-03
9.017581137199397884e-03
8.510227208266220658e-03
7.968390631930178866e-03
7.899628221374395062e-03
7.682060574117081236e-03
6.135645798867930475e-03
2.861970241484567291e-03
-9.408441457190520928e-04
-3.259148692346616576e-03
-3.230080132860314954e-03
-2.149865295137647330e-03
-2.002965160032539084e-03
-3.081757778194441251e-03
-3.873017202856796765e-03
-3.654145186041289715e-03
-4.330032219106325249e-03
-8.554859067511579387e-03
-1.605446452457599815e-02
-2.296773152879606067e-02
-2.565958924811197542e-02
-2.459877457957483637e-02
-2.334339127337238182e-02
-2.387977111238794373e-02
-2.439571978774099717e-02
-2.222826002874807652e-02
-1.775306748659897724e-02
-1.390686380409357839e-02
-1.214647266058833941e-02
-1.050650622971070931e-02
-6.409081497927654469e-03
-3.470392581534930440e-04
4.411871606666202886e-03
5.512078379495587849e-03
3.899921791824623434e-03
2.361976958273305331e-03
2.451754769640806381e-03
3.422120644580625270e-03
3.740698926082329512e-03
2.721508613432767343e-03
5.005996178650171883e-04
-2.668605263697726958e-03
-6.293953680266438366e-03
-9.199552439813679997e-03
-1.016389958816671726e-02
-9.413091252134055120e-03
-9.038664622450662267e-03
-1.112822437015653296e-02
-1.525556420806901438e-02
-1.855315955964779301e-02
-1.881484911579019148e-02
-1.692484837893810934e-02
-1.555263310571587156e-02
-1.598545948622914770e-02
-1.713987128677353297e-02
-1.747275575083939714e-02
-1.685918743345416956e-02
-1.619823955590389553e-02
-1.571892901448228644e-02
-1.433569316467033124e-02
-1.087374312857554773e-02
-5.703095591169435492e-03
-6.818095190264814249e-04
2.819193998686157429e-03
5.431653656945034658e-03
8.664331402642409807e-03
1.247318536797090323e-02
1.496603159635895991e-02
1.484335908946834634e-02
1.329324962983140582e-02
1.289054849648632248e-02
1.510610454627069055e-02
1.927061275825939224e-02
2.337477052612322789e-02
2.536195295313511955e-02
2.420053967504524894e-02
2.049310126606920801e-02
1.603623041504680796e-02
1.235736396579598974e-02
9.510987207592811257e-03
6.385561814424275950e-03
2.250666359543743427e-03
-2.183724678550922650e-03
-5.537125531235725061e-03
-7.434618652897114453e-03
-8.848578332306187080e-03
-1.062526085350856339e-02
-1.222569835939409967e-02
-1.241053055743801016e-02
-1.100909995095628036e-02
-9.522134730557295021e-03
-9.743806979657425316e-03
-1.209250251221097132e-02
-1.570656146153914107e-02
-1.971879877348557686e-02
-2.341453950009309351e-02
-2.538882963168010917e-02
-2.409550604604808119e-02
-1.973408722922767589e-02
-1.456481648241725324e-02
-1.079125056681942002e-02
-8.570083387334150038e-03
-6.180753661059597455e-03
-1.671273812883394523e-03
5.502510050801621110e-03
1.363900972011379206e-02
1.946852481454573389e-02
2.052703764367761613e-02
1.741389354892371177e-02
1.348083230805482112e-02
1.205859256576041760e-02
1.391548804481479093e-02
1.706264343214505125e-02
1.858396136494568779e-02
1.675002803437100271e-02
1.200216520299322853e-02
6.474701265722155458e-03
2.567394559231203632e-03
1.437193708193918026e-03
2.353958754484834163e-03
3.424664412793325136e-03
3.039300614283908016e-03
7.351930433364083344e-04
-2.933447846880277328e-03
-6.910247412083515318e-03
-1.021133353678720622e-02
-1.260220582119394445e-02
-1.483800747108850529e-02
-1.784769173226536179e-02
-2.153514552104506680e-02
-2.468640940973610212e-02
-2.615265268357875802e-02
-2.572876594821799784e-02
-2.371920784698189691e-02
-2.020227040649784367e-02
-1.524052998613547975e-02
-9.565802366420099109e-03
-4.475220564234693062e-03
-8.405228016867402271e-04
1.586829207872996047e-03
3.578702346370054178e-03
5.126780759592304906e-03
5.245655082164286769e-03
3.396920880801836302e-03
6.262972489193809273e-04
-1.134616718320711906e-03
-6.369860425190718980e-04
1.848486117557990782e-03
4.747206443437346213e-03
6.179678483655617373e-03
5.433278138519077004e-03
3.852004315389486681e-03
3.854976511738298414e-03
6.651118331607701502e-03
1.115359867173408050e-02
1.528739819275912008e-02
1.782525650645893495e-02
1.866390627933010513e-02
1.794466057320308339e-02
1.556711414252100363e-02
1.157437609625957577e-02
6.798984700070322129e-03
2.882928971289610686e-03
1.198129296396397044e-03
1.518917769168710548e-03
2.271457990357816752e-03
2.579016893883632859e-03
3.497348260301020705e-03
6.475951583331454944e-03
1.113014989855921899e-02
1.546158950729128664e-02
1.787630946371157603e-02
1.811639667332103770e-02
1.665378016382597012e-02
1.417390927826212704e-02
1.133124555741896709e-02
7.846186712907095989e-03
2.004737884341439413e-03
-7.440936541389763306e-03
-1.850645023809784767e-02
-2.660548264840125257e-02
-2.894378465446971124e-02
-2.750249972323347281e-02
-2.683369186516217086e-02
-2.947243293437333891e-02
-3.441765633845662864e-02
-3.972881255582923210e-02
-4.508392397855541522e-02
-5.091210003557925662e-02
-5.594323730664712419e-02
-5.716635311802639730e-02
-5.251675617710983152e-02
-4.289891219950823370e-02
-3.134788199794300012e-02
-2.064677060935740660e-02
-1.197075727304815207e-02
-5.539771254823099011e-03
-1.919782791198308344e-03
-1.880402728060958945e-03
-4.766432960540582103e-03
-7.877931005424580399e-03
-8.504541185693969760e-03
-6.730463235728823511e-03
-5.805645107853443961e-03
-9.362533446373364626e-03
-1.784698814563086267e-02
-2.738712283852313273e-02
-3.240833904988160707e-02
-2.989016144168292130e-02
-2.135601456103778870e-02
-1.077228239972392344e-02
-7.573396611122052303e-04
8.715674587714982227e-03
1.811645921614735491e-02
2.620756012361463716e-02
3.113335303467030732e-02
3.297787775684393741e-02
3.388581877545330384e-02
3.552023660184945586e-02
3.730077816575402133e-02
3.748892235915063376e-02
3.540382182869044464e-02
3.206845082011336445e-02
2.893710150979937612e-02
2.646905627560868640e-02
2.396724161976975659e-02
2.048321127861769606e-02
1.566815447618707599e-02
9.798259795716354054e-03
3.258715792176427022e-03
-3.690253903390906896e-03
-1.078372358634520876e-02
-1.780175591665970197e-02
-2.454060945518584183e-02
-3.022610347741639183e-02
-3.349199362585538603e-02
-3.409605062976520107e-02
-3.454860423390938157e-02
-3.865449753938573346e-02
-4.770433866145196156e-02
-5.871648446705833579e-02
-6.694870517328647963e-02
-6.954792070845008944e-02
-6.637393516543305116e-02
-5.856786657572582433e-02
-4.799774822562882098e-02
-3.794402867455314715e-02
-3.256639251586667533e-02
-3.417870822151614085e-02
-4.079930829407137777e-02
-4.719403171001386454e-02
-4.913100045470809168e-02
-4.647359233827328545e-02
-4.170534230056441999e-02
-3.616889458419125791e-02
-2.901543021140417025e-02
-1.950366988738017060e-02
-8.582257814283846334e-03
2.274870928951413206e-03
1.239602057722961025e-02
2.125600029643626154e-02
2.754211553401338455e-02
3.018015275876771014e-02
3.012364669621946101e-02
2.992855077468387082e-02
3.119962401045404260e-02
3.347991879557603995e-02
3.622968548652148041e-02
4.067053901464429827e-02
4.815407107127794850e-02
5.700517224116757181e-02
6.258529787669374345e-02
6.119132342973741812e-02
5.324820152457414996e-02
4.237445143678651022e-02
3.220173333558414702e-02
2.469989994691660501e-02
2.060305926181732472e-02
1.991071848679638531e-02
2.167886875355064247e-02
2.415863554547874673e-02
2.559406272344600178e-02
2.481935179658680685e-02
2.153528074159776623e-02
1.671675060993992046e-02
1.252455556077334067e-02
1.087819244725770143e-02
1.173617373684727669e-02
1.312700812936843341e-02
1.304345594944155903e-02
1.111248768992244632e-02
8.472600140211696690e-03
6.370123309189404219e-03
5.029959304642873073e-03
3.789193030140881706e-03
2.013131632047927486e-03
-5.194024665176605196e-04
-3.929452849121565540e-03
-8.081564400548224211e-03
-1.184931288779038534e-02
-1.335792578032276960e-02
-1.171999341801709983e-02
-8.341963000133083631e-03
-5.896000321628313591e-03
-5.828311440601617772e-03
-7.195078861927126611e-03
-8.076638164111827126e-03
-7.714588270780605925e-03
-6.829772645276159342e-03
-6.053708760750813565e-03
-4.755002832906763018e-03
-1.883315123243854781e-03
2.317490544859091180e-03
6.137899778971077358e-03
8.089507311638190201e-03
8.242356589507185416e-03
7.647984284620217184e-03
6.815565771203532450e-03
5.088801689481821031e-03
1.495573561777411957e-03
-3.962100554292529060e-03
-1.005638340714360736e-02
-1.538414035444190392e-02
-1.935915176249777131e-02
-2.200783703290139573e-02
-2.327481532825722080e-02
-2.305548424667162519e-02
-2.159228269688221596e-02
-1.917332079889629004e-02
-1.552739099752950547e-02
-1.011163465386789688e-02
-3.159051149107118973e-03
3.782015997291390211e-03
8.548381319898431391e-03
9.894974518678652936e-03
8.527462208940008934e-03
6.306891270816007873e-03
4.185114667556226638e-03
1.410977765080608567e-03
-2.768685138334023819e-03
-7.273425452847160841e-03
-1.016358626983886876e-02
-1.144756542093679566e-02
-1.375545837991319978e-02
-1.954781941320920396e-02
-2.829916113307150496e-02
-3.709634432200417664e-02
-4.342743621125325082e-02
-4.650892364144779828e-02
-4.631781337668199050e-02
-4.271019521547602532e-02
-3.604973381940099891e-02
-2.771164490744711453e-02
-1.870484528433989657e-02
-8.126586734320949412e-03
5.308977467354212068e-03
1.973455872230492000e-02
3.006163224048468557e-02
3.319454932015474674e-02
3.221622164465039878e-02
3.306161609085596365e-02
3.720107809694869067e-02
4.012560567303130599e-02
3.779084998262084716e-02
3.215328537538418574e-02
2.852982539282538851e-02
2.880960061670983716e-02
2.941571646695587128e-02
2.601775548593587492e-02
1.863955648779589552e-02
1.122710093529348530e-02
7.096837419757460498e-03
6.101057697035728623e-03
6.099299234918952213e-03
5.917115733811468756e-03
6.149810588844038979e-03
7.605682291825545394e-03
9.863656562910586359e-03
1.149396857576218123e-02
1.123639543817118829e-02
8.979228892250635044e-03
6.047204476300352058e-03
4.450590247257505197e-03
5.224293239412771371e-03
7.268538716421326512e-03
8.201617786563012227e-03
6.634902246971280046e-03
3.363728781070356253e-03
-8.166476685396681129e-05
-3.952513495366964842e-03
-1.057434218941815871e-02
-2.147745049554519378e-02
-3.458390889891469616e-02
-4.519066580821201606e-02
-5.018511423905112206e-02
-5.095618172967125020e-02
-5.170372532966757695e-02
-5.513450553652789188e-02
-6.058090808055375392e-02
-6.612767692582248447e-02
-7.097709171973426434e-02
-7.493371336692575269e-02
-7.693723132242434593e-02
-7.542591230803868951e-02
-6.950182986824042508e-02
-5.888888294673150225e-02
-4.366241768892294844e-02
-2.538738240208225985e-02
-8.170951187856738060e-03
3.151440050295920784e-03
7.075477628998866168e-03
7.490818668573956396e-03
1.083845344150615765e-02
2.056065061911839520e-02
3.406190359007351537e-02
4.489326457134917153e-02
4.765607789715640974e-02
4.108170210390871269e-02
2.773576656489040032e-02
1.219200476606648216e-02
-8.391162709877159846e-04
-8.586923904169117827e-03
-1.174348407731313874e-02
-1.336034134140834731e-02
-1.544552270230301581e-02
-1.713795087133093697e-02
-1.680458759765555976e-02
-1.502769774031987443e-02
-1.430437069797497150e-02
-1.603598630191836391e-02
-1.865473611650654909e-02
-1.868695089988537533e-02
-1.353441664146604224e-02
-3.882355888651876571e-03
6.381556069146214830e-03
1.336960503767488026e-02
1.637644278201578346e-02
1.709186579705892703e-02
1.631008837643070294e-02
1.343423117150755082e-02
9.413092098432490964e-03
7.821137266192192128e-03
1.144398372409406207e-02
1.883175629956623104e-02
2.564561526882216252e-02
2.885772893909744480e-02
2.841732944232962244e-02
2.545840700167287252e-02
2.071607081246712445e-02
1.493916194370550031e-02
9.389856117360052476e-03
5.186059193489849818e-03
2.738730512622388966e-03
2.065253097113294804e-03
2.901823410137564525e-03
4.150967451167718834e-03
4.101784780849992117e-03
2.141351077058159438e-03
-1.144313950385645798e-04
-4.626092507426759191e-04
1.020892518734155914e-03
1.780555204483655991e-03
-1.249469659005304767e-04
-3.763935354364340759e-03
-7.026455636899879217e-03
-9.610975683256257895e-03
-1.282342404328131076e-02
-1.676733821476312711e-02
-1.956397569860401919e-02
-2.003602529121804865e-02
-1.983868393141565920e-02
-2.158624043498582126e-02
-2.527311937778165332e-02
-2.787980947123991360e-02
-2.673753357413084786e-02
-2.213040559897800838e-02
-1.599549322524616152e-02
-9.277569888627382882e-03
-1.936970891605044234e-03
5.169604825492047501e-03
1.041194196598211122e-02
1.372450901521042772e-02
1.714775889476437623e-02
2.202174185693171402e-02
2.657405721598590093e-02
2.719240339140744506e-02
2.145238681227070940e-02
9.398573249118640990e-03
-7.014208867522928569e-03
-2.469977067625206066e-02
-4.046636900789008645e-02
-5.247398463912978511e-02
-6.062758984068217921e-02
-6.527009678561852823e-02
-6.628178866497148880e-02
-6.424632828003982998e-02
-6.182654322257349205e-02
-6.258381755926409329e-02
-6.775428493898352778e-02
-7.415404373722012110e-02
-7.548880603450455751e-02
-6.664617017130652910e-02
-4.785182974702864578e-02
-2.475893407311283503e-02
-3.999347799347172105e-03
1.131879457946031488e-02
2.185556448898646684e-02
2.908133901950022207e-02
3.341728358912406105e-02
3.504253555211415266e-02
3.492786461423252192e-02
3.424670934518889848e-02
3.365848704735890234e-02
3.379734186424052100e-02
3.525970508693735544e-02
3.698970518267965385e-02
3.567355859363214449e-02
2.813495040310128384e-02
1.391255739675800046e-02
-5.412950080951486539e-03
-2.868583625232576720e-02
-5.559058983957330252e-02
-8.450385184754322099e-02
-1.109835129946414728e-01
-1.296896316634651158e-01
-1.385563631771301318e-01
-1.405842355847107261e-01
-1.405505419421315960e-01
-1.400416086819227524e-01
-1.365496102613753815e-01
-1.273596112703628547e-01
-1.130950652976537019e-01
-9.670486489090568405e-02
-7.974206341874261195e-02
-6.068461960371537151e-02
-3.667538247100302767e-02
-6.387490764200411293e-03
2.765110043417286223e-02
5.799320579049168506e-02
7.499018653051672811e-02
7.431392256870457402e-02
6.283985385114965183e-02
5.434251317223378480e-02
5.727299301438684015e-02
6.759785019390472660e-02
7.461214860711204433e-02
7.260088441653318736e-02
6.522843493142609084e-02
5.917642602160523568e-02
5.605400202341016824e-02
5.214646626527750378e-02
4.485249317614157377e-02
3.671526637116977188e-02
3.235663172004851762e-02
3.330918433207368662e-02
3.717409653133845610e-02
4.049484050564191445e-02
4.078670028838921047e-02
3.643360933734893226e-02
2.664604288442619373e-02
1.252552756596856699e-02
-2.494724403952815889e-03
-1.440255755190784567e-02
-2.117363638386306202e-02
-2.336636021898732749e-02
-2.236063873882956216e-02
-1.881727480237598352e-02
-1.333774801038247089e-02
-7.893791607910712049e-03
-5.155225651444422102e-03
-5.826345030841414627e-03
-7.423253982365055070e-03
-6.405211483005989435e-03
-1.226174279246806031e-03
7.011317011532063916e-03
1.614999774862543869e-02
2.417081097496909595e-02
2.909760942857092178e-02
2.934510964471497355e-02
2.516060785573374231e-02
1.900742412880989871e-02
1.355033364519787550e-02
9.499545455880244876e-03
6.090692551407235825e-03
3.328594979514040448e-03
2.601742108428637800e-03
4.617320266650283729e-03
7.666268103500913089e-03
9.072519562479217092e-03
8.209484676624943106e-03
7.138552565623915158e-03
8.069477367176757995e-03
1.082923687237043013e-02
1.322186553362571931e-02
1.357474636398198209e-02
1.240194885759167073e-02
1.145946699773556232e-02
1.164437931180164511e-02
1.222049769583065902e-02
1.171094044988975347e-02
8.798288397109936543e-03
2.457876329178775281e-03
-7.607096639689954476e-03
-1.979503446070588271e-02
-3.045944898005341350e-02
-3.613423925059221220e-02
-3.633622043131744250e-02
-3.396051914184703563e-02
-3.278614063629572278e-02
-3.447044065590099821e-02
-3.782798940168535101e-02
-4.092297983453824228e-02
-4.338345249718023044e-02
-4.621518325193049725e-02
-4.991616788428181184e-02
-5.362375918879646458e-02
-5.580391457378651443e-02
-5.505917917466364442e-02
-5.060626227015848494e-02
-4.286424998398073033e-02
-3.379810830683418338e-02
-2.608657110234026758e-02
-2.111906439962246348e-02
-1.764274440888695741e-02
-1.323979065020659991e-02
-7.754651288078436532e-03
-4.505857247019824999e-03
-7.110845574293721272e-03
-1.534570226265152305e-02
-2.496166355470969683e-02
-3.149970985014530905e-02
-3.337859132521103778e-02
-3.118944060517299388e-02
-2.562610048436486654e-02
-1.757883210258584517e-02
-9.275978312862587227e-03
-3.197248804494704985e-03
4.339322155272644843e-04
3.778824894613184819e-03
8.663039989343299108e-03
1.460474066295998873e-02
1.976389561583653809e-02
2.290922716783514931e-02
2.399336337947098260e-02
2.369313616974071460e-02
2.303777909075014826e-02
2.255840752364713167e-02
2.100650544288851923e-02
1.602929113992728263e-02
7.299215718568238288e-03
-1.996301231800697365e-03
-8.252349137513211724e-03
-1.161468836201443727e-02
-1.582375835930112037e-02
-2.381611647479304344e-02
-3.415438921188506533e-02
-4.219900289385559999e-02
-4.473370362718064042e-02
-4.299414629057471404e-02
-4.087620342734243212e-02
-4.068409816462830592e-02
-4.117884606436833517e-02
-3.928329938617656364e-02
-3.284731134025403732e-02
-2.196809319670484442e-02
-8.647790385266588414e-03
4.315075549915664034e-03
1.447956844170846490e-02
2.061579014658405234e-02
2.313959454666290536e-02
2.381678594176987393e-02
2.433884349541470121e-02
2.449777647739357841e-02
2.193554683946845330e-02
1.439253234382076481e-02
2.606232329910114411e-03
-9.154903473679526851e-03
-1.592138937849835872e-02
-1.588087868736326805e-02
-1.159940823130870512e-02
-7.299696149064845152e-03
-4.735109820427552650e-03
-1.611888203127651324e-03
5.768322112714292967e-03
1.806642878291253237e-02
3.135355501431923847e-02
4.037693983641629097e-02
4.305204080112039200e-02
4.126842863058860500e-02
3.778505691385532911e-02
3.332275662011575240e-02
2.681056473854375941e-02
1.756989686977460108e-02
6.473394804891364866e-03
-4.755848068858841392e-03
-1.448672547451822744e-02
-2.128089780131113551e-02
-2.399746761786963889e-02
-2.261482779855899031e-02
-1.878345065052793722e-02
-1.497076341755758551e-02
-1.282396115825635945e-02
-1.239753484035323490e-02
-1.276577273763239428e-02
-1.297918268021806647e-02
-1.228379380223835506e-02
-9.717113828149017557e-03
-4.129853108742379854e-03
4.762233296505218212e-03
1.530607731280093226e-02
2.454486060826783014e-02
3.044670216656651662e-02
3.319474402912900995e-02
3.379942069696973556e-02
3.204191895486254577e-02
2.700202726554475768e-02
1.943000543709989120e-02
1.189526089551720851e-02
5.891341489868085791e-03
-5.953956654365886992e-05
-8.762092415235652257e-03
-2.157676267818426155e-02
-3.745960759457498540e-02
-5.370587013441134594e-02
-6.729924092421493698e-02
-7.658229966423470148e-02
-8.241623709106520035e-02
-8.731652747827102490e-02
-9.289871963089907370e-02
-9.830032158052473545e-02
-1.012761780601189876e-01
-1.005548993047412631e-01
-9.686182532961452873e-02
-9.162730688713395522e-02
-8.483496094335768456e-02
-7.462436066348529518e-02
-5.958628062259356539e-02
-4.130652212862963302e-02
-2.381526119274138265e-02
-1.002281686228264843e-02
9.663453967624077235e-04
1.247387761411417918e-02
2.621807079467340651e-02
4.005492805540962487e-02
4.979785802167565473e-02
5.296603476268425814e-02
5.075364689102639798e-02
4.689604928877948858e-02
4.487935259453604275e-02
4.552671669878266547e-02
4.642104815954672253e-02
4.394894686715539872e-02
3.688540803487360548e-02
2.811846405698147089e-02
2.225794729728989771e-02
2.148487942278820215e-02
2.397200613897874227e-02
2.591876353927610732e-02
2.455924623702806717e-02
1.945905402112026866e-02
1.171257660844132395e-02
2.576885854113059905e-03
-6.835626577052190782e-03
-1.493811846039974633e-02
-1.978221677425952979e-02
-2.056565896235743734e-02
-1.879192357145285930e-02
-1.719385601467487978e-02
-1.738954175767638138e-02
-1.915575351664442275e-02
-2.213059446684810180e-02
-2.724799445106939125e-02
-3.516773907990870113e-02
-4.312146552930871957e-02
-4.486111852738407235e-02
-3.553053805335736753e-02
-1.680278446488747343e-02
3.662308308159861747e-03
1.802514549301584973e-02
2.341276278737608116e-02
2.249382733905421969e-02
2.060355654065901265e-02
2.192769885388090242e-02
2.644509787720169397e-02
2.988445406296557499e-02
2.795647422178149100e-02
2.124625094587224636e-02
1.488876851164330078e-02
1.291364019416372209e-02
1.404387197708337545e-02
1.386554871241317023e-02
1.006928331006570754e-02
4.264678629934921979e-03
-7.483801709098597110e-04
-3.907792435815999818e-03
-5.926553831727688661e-03
-7.684918141131345110e-03
-9.551619701907357665e-03
-1.208209321479010445e-02
-1.628312534415025242e-02
-2.223440796863553753e-02
-2.791309089402736060e-02
-3.086353595387679796e-02
-3.136838415374477995e-02
-3.262432299670248170e-02
-3.703586605071127608e-02
-4.349738432531981280e-02
-4.934769212184479670e-02
-5.390145284937231107e-02
-5.847119083657575239e-02
-6.335969521733424148e-02
-6.647660183586971694e-02
-6.535489407490611968e-02
-5.970555061335294095e-02
-5.130753099814550772e-02
-4.133565114297037268e-02
-2.852430041691671192e-02
-1.128162543508904464e-02
8.246991349554103068e-03
2.426648460839046090e-02
3.300360482265553980e-02
3.678482814113088334e-02
4.053717896610064403e-02
4.546957914884237201e-02
4.863053098550869369e-02
4.807099269675425834e-02
4.546121854341935581e-02
4.275286977395380272e-02
3.885438967463700211e-02
3.190132818379562418e-02
2.360056983738085395e-02
1.868397053325093760e-02
1.967576513434850238e-02
2.371829549414124910e-02
2.532320653664542690e-02
2.175475776599028813e-02
1.528020099497922474e-02
1.042897736999171508e-02
9.649632188518825551e-03
1.183920380627898061e-02
1.446932616610772070e-02
1.614323463215036961e-02
1.690736839574628197e-02
1.702437333728336333e-02
1.625663875739197239e-02
1.418666061544358523e-02
1.089133383368621685e-02
7.306601621916389289e-03
4.710282063818925502e-03
3.530011299886779037e-03
3.033038898439577129e-03
2.629722133430047529e-03
2.823473865457193279e-03
3.956026335053101223e-03
4.578491700640501851e-03
2.586654800887344587e-03
-1.830655617640112708e-03
-5.776271215886005610e-03
-6.772193869207748448e-03
-5.123960946008084688e-03
-2.475756245743139343e-03
6.938668723249945876e-04
4.828652361001157904e-03
9.232099539947887304e-03
1.168215594729269530e-02
1.027933725664072727e-02
5.014052107684542452e-03
-2.486192784605986434e-03
-1.011228000384952093e-02
-1.606885327401406938e-02
-1.927883889242747867e-02
-1.979019661221657553e-02
-1.891193842932905808e-02
-1.862015318313342202e-02
-2.060093935577902644e-02
-2.582053358722118802e-02
-3.467994564242762867e-02
-4.674504546101498903e-02
-5.980900281075979957e-02
-6.995442161144345417e-02
-7.388988128140748513e-02
-7.177257731571193289e-02
-6.738028822449976252e-02
-6.511792789845639862e-02
-6.656055254551468403e-02
-6.943008867761558955e-02
-6.959751773603506386e-02
-6.443309744992185839e-02
-5.502698858116826519e-02
-4.562544637366602179e-02
-4.053538125485092736e-02
-4.053729545667916767e-02
-4.144038610114259003e-02
-3.649886740774103272e-02
-2.184818601196300558e-02
-8.380143840066669493e-04
1.723675831895023561e-02
2.343586061356329672e-02
1.438902743900485198e-02
-7.758096617461129017e-03
-3.779992701882940037e-02
-6.833308180741007321e-02
-9.088572443653065991e-02
-1.003023555380945925e-01
-9.874082260298211455e-02
-9.344484260922004959e-02
-9.003590280407630653e-02
-8.891810546158747386e-02
-8.775927265740871008e-02
-8.524089937114605331e-02
-8.106843142622950638e-02
-7.366592748846895189e-02
-6.044699665736467248e-02
-4.139316861264597663e-02
-2.119957656344284222e-02
-6.528304466263114454e-03
-1.035557881001692706e-03
-3.080753786192778291e-03
-7.046078942933758742e-03
-5.817539731442726743e-03
6.506788492550055758e-03
3.110556557170421690e-02
6.211178359925646070e-02
8.893738428288369691e-02
1.025639984506876573e-01
1.007698703522684619e-01
8.840789837117361827e-02
7.297481675611107443e-02
5.887396060246604529e-02
4.506052872352669242e-02
2.854207397553695444e-02
1.019766840326603516e-02
-4.291577717168754483e-03
-1.050791143050223628e-02
-1.125206764327349451e-02
-1.438655813750497683e-02
-2.450130870112289180e-02
-3.798302072657045586e-02
-4.624747798010064165e-02
-4.251605080808664588e-02
-2.612910031290834045e-02
-3.164636820974553282e-03
1.620522841146703266e-02
2.405287976718066198e-02
2.172297225550803845e-02
1.992198402158654874e-02
2.883429289590032016e-02
4.716797715278096825e-02
6.263208382699630983e-02
6.450691158254340252e-02
5.487249262143931855e-02
4.590092732720665869e-02
4.627567115384437213e-02
5.238929953432273218e-02
5.415897032423281493e-02
4.752616574909803576e-02
3.818384928800214878e-02
3.331321236781333711e-02
3.326835772124796253e-02
3.321839731064184925e-02
3.033453422896607160e-02
2.615935401151246731e-02
2.270181012090348449e-02
1.939173752703115400e-02
1.470239951701038904e-02
8.700509679046808734e-03
2.614252918210027612e-03
-2.998768022863152090e-03
-8.018792051463738066e-03
-1.101760131813277546e-02
-9.628300968892120407e-03
-3.559966238725535779e-03
3.839971498860098812e-03
8.167090521161208053e-03
7.797385759748496313e-03
4.655945738246606951e-03
1.815966458021002223e-03
1.120761668368145617e-03
2.638679390116009920e-03
5.206233240977083121e-03
7.196928510855032761e-03
7.472027146776693239e-03
6.017417031937849665e-03
3.584334700424700662e-03
1.017079994847929023e-03
-6.932469558558021798e-04
-3.471632812602875717e-04
2.473901021401905126e-03
6.523437260289542509e-03
9.800349781421727538e-03
1.132930267982190306e-02
1.150967460169044672e-02
1.082396367426006166e-02
8.806951582360108416e-03
4.529037175127452117e-03
-1.951495499741883431e-03
-8.501977284116769146e-03
-1.143811099370521840e-02
-8.139105878325642029e-03
-9.468992282784040348e-05
7.147367284887669835e-03
8.413122397222166926e-03
3.576365645117840410e-03
-2.907832489731821454e-03
-6.950836151364995358e-03
-8.082912359421649817e-03
-7.692360123452045978e-03
-5.813313338391303334e-03
-1.277269978749230898e-03
5.189549632070532097e-03
9.590421923530477802e-03
7.657549073185223112e-03
-8.541189704594539644e-04
-1.183801081405462530e-02
-2.105809609612765629e-02
-2.779642690358745394e-02
-3.379444317906263318e-02
-3.965848453904908394e-02
-4.374709737297687029e-02
-4.449098357723548641e-02
-4.244600775825339151e-02
-3.950353669695573500e-02
-3.713555490931785136e-02
-3.636750283392208016e-02
-3.852031113261802919e-02
-4.415751956681390061e-02
-5.118287780949189875e-02
-5.574088793015355425e-02
-5.616098685979178246e-02
-5.519147094724507346e-02
-5.712317504753505748e-02
-6.301345633508198540e-02
-6.993468347491615944e-02
-7.495633170025552128e-02
-7.825171352224030707e-02
-8.081504371745758253e-02
-7.993242695360873451e-02
-6.971021711978983570e-02
-4.780811817943117492e-02
-2.044728261494617796e-02
1.209342928349271991e-03
9.897230955520886289e-03
7.349691781676235235e-03
1.779428428028029035e-03
9.356973360680376391e-04
6.203130680105599717e-03
1.215968731279798778e-02
1.225247538498911749e-02
5.494073970004221402e-03
-2.491948737078935553e-03
-4.965533957022442470e-03
-1.647511048132075198e-04
8.343570881673444128e-03
1.694848420563464450e-02
2.619741064246028026e-02
3.864619855649197022e-02
5.375433637348715071e-02
6.728528384259149786e-02
7.575841563348388596e-02
7.897128489971382004e-02
7.720661693932291680e-02
6.868465977333124139e-02
5.254713510639760082e-02
3.308078036122340942e-02
1.747499490879514741e-02
8.795585087935958724e-03
3.812369838748197112e-03
-1.322287493668713445e-03
-5.912000138814852562e-03
-7.052487671980945359e-03
-5.088463843326705011e-03
-3.888895175039657100e-03
-5.766133390799631046e-03
-8.285335619589512951e-03
-7.272948201188573179e-03
-2.144215293463588162e-03
3.203313932357359454e-03
5.104660679674133394e-03
4.503571896215310781e-03
5.406110835784141977e-03
9.552599456306685305e-03
1.433233208697630608e-02
1.647389020324070349e-02
1.657206713033328171e-02
1.868977474098121663e-02
2.536294646179645951e-02
3.386809929494821736e-02
3.837184914653179318e-02
3.570409884290544344e-02
2.815295094643538443e-02
2.059665042238434732e-02
1.604675324910289497e-02
1.430198867460677307e-02
1.375147446678136147e-02
1.359160970087097686e-02
1.438374031701240667e-02
1.649368373479910554e-02
1.824124032368877948e-02
1.678396299402350883e-02
1.153025815051577675e-02
5.584343061651248635e-03
2.529158069385455381e-03
2.283380650293512400e-03
1.562675833850669634e-03
-1.571175778797183819e-03
-5.262172261279024314e-03
-6.746596397672134475e-03
-6.271061110811721427e-03
-6.616706486171486726e-03
-9.463841132207120865e-03
-1.387279199423412795e-02
-1.811422951639182072e-02
-2.142814597948721964e-02
-2.377518530355496665e-02
-2.511548280479364292e-02
-2.549386293736724193e-02
-2.514324579040969412e-02
-2.400224606659791954e-02
-2.150482380050512329e-02
-1.726140037679710360e-02
-1.183873021572866453e-02
-6.608732720684993428e-03
-2.698225022609800159e-03
-4.638039715556014096e-05
2.325047702544650718e-03
4.849339464281146768e-03
6.455069599471666662e-03
5.668687989181499243e-03
2.651887519373167211e-03
-7.225785589217851353e-04
-3.367334117248333043e-03
-6.997685975869382714e-03
-1.479901237312868101e-02
-2.789631630221495878e-02
-4.344486595833878251e-02
-5.648752738962969228e-02
-6.397151474112434955e-02
-6.714354878162655249e-02
-6.978817836120894402e-02
-7.378821225019890906e-02
-7.664300434069395984e-02
-7.384977701516381998e-02
-6.372657208008040974e-02
-4.961060942118437900e-02
-3.745601396328976374e-02
-3.152500231843520517e-02
-3.174286117127077950e-02
-3.377511028935045734e-02
-3.138624885697362255e-02
-2.074972312332015040e-02
-4.525612646766615128e-03
9.023656597312953997e-03
1.325000743450195813e-02
9.811879975584952146e-03
6.499828179489480599e-03
8.065104024277215677e-03
1.127388935566775788e-02
1.009465494654985043e-02
3.590044080109665130e-03
-3.236034657000276711e-03
-4.556822765249208054e-03
2.665546042671758029e-03
1.833605492895492434e-02
3.870519049031610065e-02
5.602751177150031014e-02
6.243542694953918559e-02
5.669758026791184291e-02
4.580064431802418484e-02
3.779833802600793963e-02
3.402059550925445874e-02
3.038529035995338190e-02
2.529476884191448130e-02
2.264022840154575333e-02
2.596696939509145555e-02
3.262561507142720113e-02
3.606979670879150585e-02
3.277924160918407187e-02
2.521373957529971302e-02
1.852458272262292802e-02
1.559622024517457600e-02
1.519796352397055281e-02
1.413926905311502398e-02
1.078439367582613613e-02
6.456680081934430826e-03
3.558748206961731640e-03
2.745382096769742163e-03
2.534971160486878573e-03
1.579649803967597818e-03
2.509094506922101750e-04
-6.030239883533678466e-04
-1.595429024864078449e-03
-4.497350712739307463e-03
-1.048826761593387238e-02
-1.968256562891917277e-02
-3.162743555924635297e-02
-4.454919359891430786e-02
-5.454710488045541594e-02
-5.794913383072745894e-02
-5.521252073694991186e-02
-5.078858037471392639e-02
-4.829062274233147239e-02
-4.728388176697772421e-02
-4.581213979673307013e-02
-4.438583220014372804e-02
-4.540073136288829553e-02
-4.909747291293899835e-02
-5.194179302846394647e-02
-4.933496590638573182e-02
-3.893574886660706308e-02
-2.136966319338388584e-02
6.178276793524115030e-04
2.259429468196311880e-02
3.959720566148215715e-02
4.933548455328835153e-02
5.425667369060244855e-02
5.871681109647348268e-02
6.403315603630171937e-02
6.760100161356079329e-02
6.651437756163694481e-02
6.047355409718570274e-02
5.126728040630520317e-02
4.104147429091850596e-02
3.143646954000370308e-02
2.313919418857564650e-02
1.564024522103329637e-02
8.229268289604992417e-03
1.700451700786756708e-03
-1.803190242737986483e-03
-1.355543293025288781e-03
1.084367421316533237e-03
2.541675799086350659e-03
2.171727392806404623e-03
1.454551591541152541e-03
1.272911913863082264e-03
1.851739077736684472e-04
-3.334188291778672920e-03
-7.608118095402730506e-03
-8.228632270293209303e-03
-2.404909289797375112e-03
7.518877291811406835e-03
1.512163952413107804e-02
1.467062848512749179e-02
5.673718010138602101e-03
-6.443192472240141452e-03
-1.451651571334280390e-02
-1.570025874600664700e-02
-1.378405755228063329e-02
-1.500887965148213488e-02
-2.198674326947212473e-02
-3.287944323539049307e-02
-4.580840074782818044e-02
-6.151430679382911132e-02
-8.068296191938011119e-02
-1.003602693444708982e-01
-1.149668636564046276e-01
-1.209865121317512532e-01
-1.197368893758455621e-01
-1.157109193190914154e-01
-1.134425886325720612e-01
-1.154775178515002193e-01
-1.204703273910105038e-01
-1.219367362297370111e-01
-1.117162062956234964e-01
-8.787871461065524525e-02
-5.857532083581962895e-02
-3.569201474281036984e-02
-2.472001440484693918e-02
-2.234153642237389492e-02
-2.299911221596717681e-02
-2.455014808467548271e-02
-2.634615461528147864e-02
-2.488588153920724341e-02
-1.495937790812102743e-02
4.926619626382269974e-03
3.025370507472707748e-02
5.383116489870576338e-02
7.033929241045649983e-02
7.784217329383971706e-02
7.663202590820557270e-02
6.852174841900768310e-02
5.828077492319743563e-02
5.422952188467976969e-02
6.302536301932337715e-02
8.097007098585098928e-02
9.319996087383404515e-02
8.621121132815584565e-02
6.158927316360279791e-02
3.461428555286994585e-02
1.917863487414601248e-02
1.648028080746056709e-02
1.839804571353962498e-02
1.835467790924064091e-02
1.634425155531606458e-02
1.485008647880931010e-02
1.348468742395289056e-02
9.662302004728607480e-03
3.305718701037384851e-03
-1.823276481795914122e-03
-2.413366172062037917e-03
2.772119154043252301e-04
1.903352367673579815e-03
1.365602441432912841e-04
-2.439690362045167718e-03
-5.608601050765795381e-04
7.792049174069410472e-03
1.670009629899479875e-02
1.517543868695358719e-02
-2.273177958733352180e-03
-2.808955434761248315e-02
-4.753734804006637393e-02
-5.280270028934780369e-02
-4.928567363382297534e-02
-4.764925186883930963e-02
-5.223323906959409513e-02
-5.872916304406448212e-02
-6.110262068522950840e-02
-5.756518768779772532e-02
-4.912584705294032600e-02
-3.518104560293618122e-02
-1.414570046700795898e-02
1.136762619517893425e-02
3.348224236837715057e-02
4.563361296381086146e-02
4.876877015410586297e-02
4.883954643681558128e-02
4.921153190123921106e-02
4.816668436178613011e-02
4.364072061065301517e-02
3.744237067818259601e-02
3.343831604939435931e-02
3.324517783485878009e-02
3.527267930210982450e-02
3.724451767409008018e-02
3.807148716610801037e-02
3.725541443192461472e-02
3.409990206607541041e-02
2.864010385076284568e-02
2.276835322448862026e-02
1.934672568027281589e-02
1.984847002068490171e-02
2.298811760257033626e-02
2.580610580737809079e-02
2.621187636405627672e-02
2.444050296432924083e-02
2.209500125135505783e-02
2.027566625165052108e-02
1.893697105811843057e-02
1.744033180028928612e-02
1.491830622727080904e-02
1.017146843407692840e-02
2.093619433210989339e-03
-8.931599726887385488e-03
-1.998555192050281704e-02
-2.686160473099502913e-02
-2.732327240889828243e-02
-2.313874331424926531e-02
-1.836522182738960229e-02
-1.567148148014489359e-02
-1.473343163797874097e-02
-1.383231690760749165e-02
-1.201977621838433950e-02
-9.528226435252439008e-03
-6.972076611323363253e-03
-4.847731451781378022e-03
-3.396210522152660286e-03
-2.108337120688194306e-03
4.480528408385677170e-04
4.906257739509620013e-03
8.728580648399366856e-03
7.440187226086842839e-03
-1.703354043553428573e-04
-9.636751588666831250e-03
-1.579605283143070346e-02
-1.926779050249417466e-02
-2.552630958997235272e-02
-3.731379162791819554e-02
-4.996405979948949361e-02
-5.575795495362891735e-02
-5.259347195107508255e-02
-4.701943634812447148e-02
-4.783638405198808313e-02
-5.702864620959360864e-02
-6.795886823599041338e-02
-7.268882496475188859e-02
-6.987231222789951068e-02
-6.425085499769470077e-02
-5.926265750421980116e-02
-5.264338614203162292e-02
-4.032058451782953579e-02
-2.270792925122962908e-02
-5.082008981594040263e-03
7.390043447638995969e-03
1.306223064312909792e-02
1.323866306753601098e-02
1.080118391700531956e-02
8.985552344318649062e-03
8.590204209039836378e-03
5.843652783480396407e-03
-4.495697860726622676e-03
-2.250786662897720850e-02
-4.077591466649747171e-02
-4.994094989807513346e-02
-4.620509931244080881e-02
-3.292790200115355836e-02
-1.628399319384443364e-02
-1.211708059059099767e-03
9.061025343783082192e-03
1.239236554309881312e-02
8.488325472338378169e-03
-2.104995912336125288e-04
-9.475214971597664335e-03
-1.529167353415474863e-02
-1.500962674587882038e-02
-7.698137574360346472e-03
5.300839373462334740e-03
2.054821892075074652e-02
3.476267859275965211e-02
4.728676994223238172e-02
5.925166675119252629e-02
6.978972713997402821e-02
7.428061367304487905e-02
6.806961868027490425e-02
5.227472020209518455e-02
3.474475935353795591e-02
2.434077429378261881e-02
2.443399748197414359e-02
3.178611119326949647e-02
4.023541912036633639e-02
4.454568830694186077e-02
4.230925467785869032e-02
3.480592132290739882e-02
2.650232533361469855e-02
2.167592650502717100e-02
2.020089667997296626e-02
1.769255363750870877e-02
1.070697884666807313e-02
7.925157285078300541e-04
-7.320921076864349286e-03
-1.044360670279394221e-02
-9.171141500051408976e-03
-6.833425213801102432e-03
-7.541905535367059502e-03
-1.422988630496006303e-02
-2.637581651354995241e-02
-3.910670341800821792e-02
-4.634123972601350561e-02
-4.640019632165132135e-02
-4.360534922450448603e-02
-4.258942660711885486e-02
-4.172610001715190697e-02
-3.481635617423999712e-02
-2.004106201999121192e-02
-4.921887667923006623e-03
-1.477528486270768585e-04
-9.209011778932497949e-03
-2.642900297097578594e-02
-4.513974116684279364e-02
-6.459399254084820241e-02
-8.692432626340985957e-02
-1.101172972411377377e-01
-1.281098166908159752e-01
-1.378875194496397005e-01
-1.435540691487469933e-01
-1.522820919128640704e-01
-1.673200190635870388e-01
-1.850161549291701735e-01
-1.975575767844781339e-01
-1.987520789510980046e-01
-1.882967719669140227e-01
-1.705378513832602472e-01
-1.489483839015103561e-01
-1.232355647596833637e-01
-9.287907174639863095e-02
-6.122743074097111021e-02
-3.262557812450155720e-02
-5.859026332728151272e-03
2.526657696807712086e-02
6.248631766484428335e-02
9.712730893600764193e-02
1.173345448030160415e-01
1.203996194028362637e-01
1.145624471975051628e-01
1.089595500376169535e-01
1.056797861452590248e-01
1.023054624548093844e-01
9.768448302844383313e-02
9.214553379786041831e-02
8.462773718188418282e-02
7.331801105655803841e-02
5.920610588283393982e-02
4.697800961241353768e-02
4.142809128035652988e-02
4.320161417578777946e-02
4.826099345702229704e-02
5.145585166005722105e-02
5.044795773645339987e-02
4.596921853719769524e-02
3.855522246219366539e-02
2.639805779749346965e-02
7.908220211923088980e-03
-1.419782223398436717e-02
-3.377628693421915601e-02
-4.679214900460563348e-02
-5.393558907170586253e-02
-5.742283967482570556e-02
-5.808454656731487642e-02
-5.687068236157685058e-02
-5.645647172462535390e-02
-5.887521492520846750e-02
-6.262064037492556801e-02
-6.396561702045934494e-02
-6.046992041746797331e-02
-5.117737527519169299e-02
-3.375907910744977564e-02
-4.846794386955410178e-03
3.460590404078395937e-02
7.607905904998124580e-02
1.081417254637816322e-01
1.240330086310251351e-01
1.237075953465571337e-01
1.105595750597900828e-01
8.935018374013248277e-02
6.678597413426483331e-02
5.007926115868623768e-02
4.230828600675762968e-02
4.004685181415295475e-02
3.716744243265827224e-02
3.092472183293513283e-02
2.361085733812195997e-02
1.881238247043870784e-02
1.740437760010239004e-02
1.748844736433596836e-02
1.722964388596552598e-02
1.672006055435777683e-02
1.682517156026457766e-02
1.690740931424521837e-02
1.481466976678687264e-02
9.296456901500649989e-03
1.376771272126237284e-03
-7.082255182295865009e-03
-1.495194666734967273e-02
-2.111624873408862735e-02
-2.340427373272317008e-02
-1.996599810645980841e-02
-1.182906777892927912e-02
-3.159554748530381523e-03
1.473622461165848300e-03
1.652925506328595826e-04
-5.558908087917991021e-03
-1.255758796992557588e-02
-1.870213769988191346e-02
-2.397775065569492103e-02
-2.912590149754998650e-02
-3.364535143667707340e-02
-3.596427615327536798e-02
-3.569102856900618903e-02
-3.456092286999726954e-02
-3.430828002069982036e-02
-3.437991844558971333e-02
-3.289136488555315790e-02
-2.944141390533715208e-02
-2.565349556789396634e-02
-2.267997444315153488e-02
-1.935664205368894247e-02
-1.412358175985869123e-02
-8.765524793347582305e-03
-8.523041234779362915e-03
-1.663422689256315729e-02
-2.915976526926509702e-02
-3.735887133134072752e-02
-3.591019100636477779e-02
-2.747862438051701037e-02
-1.875563087553128519e-02
-1.350597149515476818e-02
-1.024936371177403299e-02
-5.330802813641790164e-03
3.127312444712867373e-03
1.376306583182090003e-02
2.305602338988100783e-02
2.759055278220346255e-02
2.646322040535474540e-02
2.266821757404034743e-02
2.153251750764773390e-02
2.605862450405575098e-02
3.352735282029762481e-02
3.807492419745602680e-02
3.693744202754183081e-02
3.267595976894593218e-02
2.876030196289407204e-02
2.489195604342171741e-02
1.839700844490360296e-02
9.101668573025219547e-03
2.956240887054168462e-04
-5.807218380332031769e-03
-1.195783699457165020e-02
-2.364181749156681056e-02
-4.286349119879036967e-02
-6.531767418649574164e-02
-8.515984557676406497e-02
-1.024731157580779789e-01
-1.236833096323994852e-01
-1.528363839687274794e-01
-1.842558536172634320e-01
-2.069231592749217197e-01
-2.159638932855042770e-01
-2.169642927814331712e-01
-2.182520297010917820e-01
-2.215467305039983403e-01
-2.217617736348118929e-01
-2.135951085285022477e-01
-1.954132777645557484e-01
-1.677262882211648931e-01
-1.314011121543917082e-01
-8.899469807722415471e-02
-4.681085624767312298e-02
-1.349548815735632235e-02
6.438653764758299133e-03
1.980236949531817559e-02
4.270977076730528982e-02
8.515947782370045238e-02
1.359434674427471568e-01
1.685528143795747003e-01
1.667868077280690864e-01
1.416695145780668130e-01
1.186806609530569045e-01
1.107405871912918865e-01
1.092963880292875251e-01
1.009167384801584605e-01
8.540042502084783937e-02
7.407978893955506627e-02
7.462481302283016649e-02
8.257980421429458873e-02
8.726870654407700711e-02
8.248212742020548383e-02
7.043506789798839596e-02
5.737672919387458437e-02
4.733599857146104234e-02
4.024382754779248783e-02
3.472034792284997562e-02
3.094571290086614579e-02
3.014417717346034795e-02
3.213061471519355200e-02
3.457736404577336359e-02
3.495388335911188415e-02
3.269057624624711195e-02
2.920720073754077065e-02
2.620773173630745051e-02
2.431361834655279552e-02
2.308532104489524964e-02
2.180933071621755578e-02
2.014752093810474876e-02
1.823340929566356558e-02
1.621034741888830594e-02
1.388340350199140406e-02
1.115135681278534886e-02
8.371475252568075578e-03
5.449470905711723163e-03
8.614677161838934236e-04
-7.031703315553945212e-03
-1.713927219525122198e-02
-2.510924417719729088e-02
-2.683654970270668572e-02
-2.263461398141344491e-02
-1.733057106432460762e-02
-1.603861555941867023e-02
-2.022544609841179022e-02
-2.793625390324189217e-02
-3.690652274067247884e-02
-4.622222455025137150e-02
-5.491955412096931333e-02
-6.055756247550698329e-02
-6.062377081788009048e-02
-5.529126790671951702e-02
-4.856703110245866317e-02
-4.713627650543089631e-02
-5.698426129904141796e-02
-7.819895236833750152e-02
-1.021722638889222406e-01
-1.167752629793704228e-01
-1.170043872700843868e-01
-1.098721465921436574e-01
-1.069213549872385510e-01
-1.120202329396588620e-01
-1.182547884577866415e-01
-1.175338520661940722e-01
-1.113534819488467276e-01
-1.091640466596402737e-01
-1.158331698789321490e-01
-1.238581435800949898e-01
-1.203314976945678016e-01
-1.003028656385930306e-01
-7.119911842968025539e-02
-4.468356718088982438e-02
-2.633367099313046675e-02
-1.389822986047130164e-02
-3.559344954561415031e-03
5.051751250489468735e-03
1.046922722151669843e-02
1.316361327801815993e-02
1.539403426629152444e-02
1.863971862207848204e-02
2.346790866440411766e-02
3.113544393806447555e-02
4.298837232447172418e-02
5.825278075913309372e-02
7.387668074689475450e-02
8.687593648102721888e-02
9.658245570063168917e-02
1.046405012898873055e-01
1.122642229491855465e-01
1.169350269356203148e-01
1.128973384645745454e-01
9.668270128766989768e-02
7.212234465711819809e-02
4.836024817104248724e-02
3.232126212683248540e-02
2.401571006920621976e-02
1.928652648469755468e-02
1.520358180222417324e-02
1.141004141215582433e-02
7.830341946238644074e-03
3.694010952892525044e-03
-9.338941778827098642e-04
-4.691771479894615328e-03
-7.551293738496912648e-03
-1.315740583153306165e-02
-2.612442506189805932e-02
-4.556684078396115029e-02
-6.290220472702444388e-02
-6.896629849334913465e-02
-6.363174701471860373e-02
-5.599898174418633384e-02
-5.417852978245769890e-02
-5.692933394449058160e-02
-5.665373919020649102e-02
-4.887804614471315257e-02
-3.654399928002508013e-02
-2.511390091159141150e-02
-1.575515350439626178e-02
-5.368999129088294041e-03
7.471240268582970620e-03
1.973663868639316879e-02
2.801754304529210232e-02
3.207448899593758063e-02
3.173725460500186057e-02
2.309752560109388023e-02
2.311605684595219486e-03
-2.708018609537249724e-02
-5.447296245165291623e-02
-7.099242993865409468e-02
-7.602243868155741935e-02
-7.485964978570330830e-02
-7.228558904150786391e-02
-6.926302130816765212e-02
-6.409116959224155086e-02
-5.513438940891834256e-02
-4.255816007540964840e-02
-2.837394079065136410e-02
-1.528825192420232675e-02
-4.951661969746667079e-03
3.743524791751122807e-03
1.473834497893470458e-02
3.182517738467170038e-02
5.450212460924550029e-02
7.738298735216644908e-02
9.448303875102904981e-02
1.033293073824508995e-01
1.043142187526685805e-01
9.792286115279145997e-02
8.490415515455708440e-02
6.844024804452682187e-02
5.347406304441702785e-02
4.310315436625946489e-02
3.696763300430674914e-02
3.348036751510450465e-02
3.207552386011694456e-02
3.241990839881225134e-02
3.251289095813875846e-02
2.887481987250449175e-02
1.895489733870329638e-02
3.524432934985360488e-03
-1.299843893080541643e-02
-2.510021530721622679e-02
-3.040922079222637894e-02
-3.205467549419591111e-02
-3.597623218647566512e-02
-4.488726795338421338e-02
-5.506736317846418205e-02
-5.983308763913409295e-02
-5.616203796171521934e-02
-4.721886410272428669e-02
-3.817136457383327186e-02
-3.059306080149127444e-02
-2.241656076859043639e-02
-1.293079657272293986e-02
-5.095642151448896012e-03
-1.487220851451907929e-03
-3.123004028675595723e-04
1.999164185159639680e-03
5.705709127457450625e-03
8.132667640747300378e-03
8.488745821315570039e-03
9.226119332166840548e-03
1.193753258823254670e-02
1.449577412739046917e-02
1.412049500134662620e-02
1.168353193707583060e-02
1.035709968270228515e-02
1.022748236789461362e-02
6.844885241207795262e-03
-3.721277988991552547e-03
-1.975446936250836727e-02
-3.504364243771612014e-02
-4.467835006536335224e-02
-4.896415165459836599e-02
-5.201347795057151280e-02
-5.740042504143538088e-02
-6.538938289028609074e-02
-7.361280503286161958e-02
-7.926943387465251734e-02
-8.013560355818834247e-02
-7.431441545528350012e-02
-6.053737667933659083e-02
-3.929325048801207004e-02
-1.301515627181239199e-02
1.539702571484300418e-02
4.375452483581274143e-02
6.958570682221955350e-02
8.859686346810179136e-02
9.589732249936848418e-02
8.979658526672829044e-02
7.402370707312293241e-02
5.558278655061717893e-02
4.023392651129369807e-02
2.974715175131508599e-02
2.265685439416382715e-02
1.657988386566250361e-02
9.190328794897801440e-03
-2.591528064630987255e-03
-2.249047344943622129e-02
-5.146553604223964157e-02
-8.344624035667183581e-02
-1.064573266675221119e-01
-1.111650063243855846e-01
-9.936195923375630568e-02
-8.268248588306575941e-02
-7.223403551157171754e-02
-7.028893096824319342e-02
-7.198575941191109884e-02
-7.290221476972164050e-02
-7.277179042220840999e-02
-7.201324533276001749e-02
-6.698917633282316930e-02
-5.102231741753318617e-02
-2.108918623347679974e-02
1.658690664604561479e-02
4.868994087420396022e-02
6.432540864098544586e-02
6.326768249992541227e-02
5.428742197186336993e-02
4.556122107543527505e-02
3.838581219818260754e-02
3.055129336419807815e-02
2.278276853481253292e-02
1.852597201747669536e-02
1.804389168742618482e-02
1.629218891094995000e-02
8.336690931155042728e-03
-4.580840946050783805e-03
-1.585911259034258891e-02
-2.006876468239161479e-02
-1.790445424938764615e-02
-1.475654614165130933e-02
-1.496326900704380257e-02
-1.765790954792162415e-02
-1.786805979994517818e-02
-1.129456812698487883e-02
1.897627188173492451e-03
1.756240842629756480e-02
3.115507636722528173e-02
4.021733789685917604e-02
4.374031775450547971e-02
4.086144353894640563e-02
3.164427267730585136e-02
1.871852233180043568e-02
6.597874634187507296e-03
-1.641339779235815970e-03
-6.844687619793680261e-03
-1.224321021687622447e-02
-1.943676986762524900e-02
-2.680356398033480539e-02
-3.203457337144907657e-02
-3.503587015133739074e-02
-3.781263030624319038e-02
-4.248130412763356789e-02
-4.970219331608897312e-02
-5.777253124927040490e-02
-6.264412244047755374e-02
-6.013903640606365480e-02
-4.944766530964202905e-02
-3.439130769576193014e-02
-2.091617154684432753e-02
-1.319595444928498874e-02
-1.131194975721283233e-02
-1.164602421409640341e-02
-9.815598234809637043e-03
-4.633755828857109502e-03
1.711760491138609433e-04
-9.241592723458969460e-04
-9.246531450729428281e-03
-1.935392356195376681e-02
-2.395984153075249312e-02
-2.202173670045192919e-02
-2.056866803593065257e-02
-2.706434189501102233e-02
-4.077013298012420461e-02
-5.374702203293998948e-02
-6.056315632152940026e-02
-6.480018045453850295e-02
-7.449298465576272010e-02
-9.221559425270157984e-02
-1.114005475594549016e-01
-1.226719195122127626e-01
-1.227616747800801406e-01
-1.162423000153674363e-01
-1.087544188317924043e-01
-1.000054777618492180e-01
-8.436538720938649427e-02
-5.745793470301428785e-02
-2.105019711761938958e-02
1.773466521766271786e-02
5.020767845262815582e-02
6.943080531907463993e-02
7.314224040955488726e-02
6.615387883382485568e-02
5.831147314789036223e-02
5.676321080557733545e-02
6.007138580332598704e-02
6.171011009447849999e-02
5.842279892886625969e-02
5.241810955143533235e-02
4.575697371654264406e-02
3.633060715894752962e-02
2.147210962078241817e-02
3.476547044870805393e-03
-1.143936358160838745e-02
-1.967321365371613520e-02
-2.349110646737698899e-02
-2.705495423178719966e-02
-3.131962301478061900e-02
-3.462339779539738011e-02
-3.676884079790052051e-02
-3.953216107860800521e-02
-4.247563913932429769e-02
-4.023539695620516332e-02
-2.632936296542697993e-02
-7.920373011699023778e-04
2.683439261545969567e-02
4.428196883383259813e-02
4.718988134908413262e-02
4.175950435109164471e-02
3.672565674772285821e-02
3.522599400532798464e-02
3.576915834814455714e-02
3.796801439233059988e-02
4.338802719095116722e-02
5.123280465753508178e-02
5.698984258870951058e-02
5.717438771309736600e-02
5.351243065698858131e-02
5.037285651328059222e-02
4.893055491082996117e-02
4.598878233272804539e-02
3.864681152124931074e-02
2.825565722275117861e-02
1.889904344639424527e-02
1.311690082773553714e-02
9.959046022553813896e-03
6.302515472361634903e-03
-9.340510930173109546e-04
-1.315012939163682712e-02
-2.897979504237812101e-02
-4.440223439777429143e-02
-5.512859089063195522e-02
-5.995574639020903596e-02
-6.147079506584336023e-02
-6.292083437504186749e-02
-6.493275003560018688e-02
-6.596205170453410538e-02
-6.524413711700940977e-02
-6.399709660982784432e-02
-6.363633743671821830e-02
-6.384186477037988305e-02
-6.291329191221671502e-02
-5.935665416047304632e-02
-5.229397742672746430e-02
-4.083523993241527233e-02
-2.467797793270874382e-02
-5.719753757509526623e-03
1.246626146023018834e-02
2.746622068798985558e-02
3.906894831429024578e-02
4.722001044189495095e-02
5.077256773415434604e-02
4.903897161206507288e-02
4.314926820726236456e-02
3.512430781724801276e-02
2.663142663740020177e-02
1.919325730531342908e-02
1.464891604271261957e-02
1.422360402480311002e-02
1.661694114102039987e-02
1.731402191201731472e-02
1.111103808604603678e-02
-3.246247447422921477e-03
-2.086385849278894408e-02
-3.408310549734479278e-02
-3.857846344002709843e-02
-3.606047483409070831e-02
-3.137456011384615745e-02
-2.798573395357339955e-02
-2.677832734722399369e-02
-2.814879968678960648e-02
-3.320815213607744565e-02
-4.167303733386658326e-02
-4.923252657736256616e-02
-4.904376890288023733e-02
-3.723268778878585650e-02
-1.635914087647947351e-02
7.339738337763869122e-03
2.899846119070766115e-02
4.605862253601566286e-02
5.555078176842600385e-02
5.355161157545886008e-02
3.881837936364988112e-02
1.613388901919827687e-02
-5.322790546340128506e-03
-1.803575539990971005e-02
-2.171610653095933097e-02
-2.339181446583419102e-02
-3.114597887481249106e-02
-4.676206328893993402e-02
-6.514502156128941512e-02
-8.158844357626550414e-02
-9.746110412297900871e-02
-1.161133078771722921e-01
-1.345164354222989633e-01
-1.428347018511224309e-01
-1.338444576055212720e-01
-1.113125552043140176e-01
-8.694660897587212778e-02
-6.802307137790562785e-02
-4.960126657530528060e-02
-2.233069996514432456e-02
1.238499534846576079e-02
4.074830604830517039e-02
5.285589676093864486e-02
5.516775967801073460e-02
6.173349003133167534e-02
7.688173434161486852e-02
9.231762279594987741e-02
9.883623519017939452e-02
9.474433781278326916e-02
8.347314079351117466e-02
6.897435862712952837e-02
5.517274428555483945e-02
4.568473408487461196e-02
4.105890493015702802e-02
3.798829843852963989e-02
3.342763313403542685e-02
2.862749197461125772e-02
2.741936033072640486e-02
3.103534843042599078e-02
3.626914334327379502e-02
3.885772103475539779e-02
3.741618323081503938e-02
3.364303861627101350e-02
2.963449240087306924e-02
2.587047396796452597e-02
2.171112443778786330e-02
1.711489844424760043e-02
1.315848074687067659e-02
1.079736738198374020e-02
9.705816087015947322e-03
8.719672299151104422e-03
7.115210312376087955e-03
5.160160053027961803e-03
3.477816405898130972e-03
1.655058220648458756e-03
-2.942333844077147688e-03
-1.456714070977394720e-02
-3.606856504127187169e-02
-6.563764280015095542e-02
-9.671704006909705165e-02
-1.217585488268728838e-01
-1.368206905584579969e-01
-1.434383834595958918e-01
-1.468052213705153541e-01
-1.520232467935713760e-01
-1.607583828924581404e-01
-1.697935361982430280e-01
-1.725396095365292204e-01
-1.635723036551921805e-01
-1.429333001981983597e-01
-1.153049375799121978e-01
-8.451926984321682379e-02
-5.051305604059575655e-02
-1.282871331465684772e-02
2.486138641890697776e-02
5.617770056840683951e-02
7.726649962584815345e-02
8.865849807668903237e-02
9.269138353753621218e-02
9.155821356991519777e-02
8.821244466240996118e-02
8.686662159694866214e-02
9.016509603339135925e-02
9.544134251540153935e-02
9.556445621867760976e-02
8.538754366632617110e-02
6.719466574159337069e-02
4.861020726484317767e-02
3.534916755533903943e-02
2.718892598543543038e-02
2.101108692691045290e-02
1.619869752575117325e-02
1.546055171188661682e-02
2.018417146990331146e-02
2.647345561433222041e-02
2.768056349407340896e-02
2.124989712401394518e-02
1.173575675897828297e-02
6.137585125561945479e-03
7.057792664195480965e-03
1.128216033168496883e-02
1.416374703234029274e-02
1.408115874384853819e-02
1.288352070608136772e-02
1.304645680747829051e-02
1.472034819813261737e-02
1.549239976372182061e-02
1.304745986349405140e-02
7.795318530218268462e-03
2.742203464624608667e-03
1.184734757846873368e-03
4.565908155232316183e-03
1.169534937418022918e-02
1.925071693314038893e-02
2.330510769436311067e-02
2.148329157112040602e-02
1.460044230838603713e-02
6.195335682857775264e-03
-2.135063484822181511e-04
-3.744119945449059499e-03
-6.134780471631950775e-03
-9.815253001297792948e-03
-1.652861439782182806e-02
-2.667788580449615213e-02
-3.812099371902789163e-02
-4.578356563500889792e-02
-4.475376706954795059e-02
-3.505016197615524326e-02
-2.226680462787880219e-02
-1.249287392139707825e-02
-7.637759648167401737e-03
-6.797540750430735267e-03
-1.020336301974174645e-02
-1.854932735712494160e-02
-2.875994217330883618e-02
-3.412839874952409980e-02
-3.030743216584371943e-02
-1.939108787008304857e-02
-7.208267156626309985e-03
1.872522468468403338e-03
7.038195093693373067e-03
9.827513779657723325e-03
1.193093848811150638e-02
1.346506265371896077e-02
1.306122512565232804e-02
1.019945910159488975e-02
7.175456931940478976e-03
7.432020344237201363e-03
1.156585451405415035e-02
1.626558954229559428e-02
1.788408108142056779e-02
1.574420292366142740e-02
1.114608284740562644e-02
5.056839428816765555e-03
-1.354372476350759139e-03
-5.368019673494544772e-03
-4.616668663764806994e-03
-5.649161782959767749e-04
1.588779430791450488e-03
-2.699603436409852338e-03
-1.352388034377278656e-02
-2.759657506121662371e-02
-4.274984927395136108e-02
-6.017856712571397620e-02
-8.114379752649550359e-02
-1.020553527864087873e-01
-1.151309013694633981e-01
-1.154426628587799791e-01
-1.056699272142217622e-01
-9.115398461212977088e-02
-7.182013466387050793e-02
-4.447051814188676677e-02
-1.379656005699523603e-02
6.026114996558935150e-03
5.633565807098545215e-03
-7.781655410666588578e-03
-1.782473247196751306e-02
-1.529227583996091433e-02
-3.279010782443703316e-03
1.085688313503651442e-02
2.264644776530441370e-02
3.004253813556192337e-02
3.149829882852774043e-02
2.735775940981188120e-02
2.107618142563099511e-02
1.681433629413744968e-02
1.606236578415148886e-02
1.750965706024131333e-02
1.988645131713999772e-02
2.359958183563984693e-02
2.875479415326764182e-02
3.267796313441621164e-02
3.169947043692594030e-02
2.602118396231808961e-02
2.077647081484483224e-02
2.051480328830365338e-02
2.365013762433382932e-02
2.427047792523828046e-02
1.922574294735923325e-02
1.171709611936772207e-02
7.562299373786123338e-03
9.348401450050536007e-03
1.493877415535108978e-02
2.055406617648230030e-02
2.412353213904369978e-02
2.594128194461665926e-02
2.712905540195456253e-02
2.802849075628259176e-02
2.798850375509064070e-02
2.637948149482344934e-02
2.355626121097024323e-02
2.069672766819737747e-02
1.844298606280894703e-02
1.543316896531738217e-02
8.709799429866710643e-03
-3.121513635056448639e-03
-1.678138141661123309e-02
-2.562707039146967097e-02
-2.529016626032028203e-02
-1.807939321306331962e-02
-1.150720122114313841e-02
-1.224547774698951305e-02
-2.096518388450788195e-02
-3.254882521247911414e-02
-4.125190842773124311e-02
-4.538077887741939070e-02
-4.651262015214151918e-02
-4.520038162081851246e-02
-3.981696228853703889e-02
-3.012033675809872024e-02
-1.959731106874955733e-02
-1.267727549702959283e-02
-1.081751060347696351e-02
-1.243047959798644457e-02
-1.557329135322465218e-02
-1.952068934898909883e-02
-2.412009414838649224e-02
-2.840808266894128895e-02
-3.005578143304394462e-02
-2.638090617576406213e-02
-1.659619878727230588e-02
-3.845987418486177933e-03
5.187832218805300127e-03
4.585720856720727073e-03
-5.212160591048871708e-03
-1.710178668973747623e-02
-2.457996601062225131e-02
-2.864487304247815419e-02
-3.543009835341884989e-02
-4.774540645055400795e-02
-6.175556969486881848e-02
-7.214980914391076749e-02
-7.744643493539354884e-02
-7.844449683299134501e-02
-7.367774296852670768e-02
-5.941271754800718508e-02
-3.451776091342338010e-02
-4.224906810707617852e-03
2.190145620865740356e-02
3.732265585266240915e-02
4.487282935849717935e-02
5.403477741200159862e-02
7.033339560871706975e-02
8.916891394692828821e-02
1.011738187372952236e-01
1.009236281227562648e-01
8.926730433022798950e-02
7.101574783288937265e-02
5.320805748098975108e-02
4.274031608285827621e-02
4.162909528504914192e-02
4.471193665759068403e-02
4.438841207420090446e-02
3.808135744144552914e-02
2.986618495343993859e-02
2.485196441008155274e-02
2.355059592812256894e-02
2.250608713518651577e-02
1.917413966052994995e-02
1.442141378931544732e-02
1.022362765474215188e-02
6.685193198227182797e-03
2.564754972715014257e-03
-2.011449544159495464e-03
-4.879281974032870922e-03
-4.345540648567495882e-03
-1.599795238410999920e-03
1.404681165723055847e-04
-1.465095610871725192e-03
-6.526250490051931259e-03
-1.369877259160793073e-02
-2.057140172014753146e-02
-2.323866775168058688e-02
-1.768475819667216301e-02
-3.359013186700876650e-03
1.498096507933351258e-02
2.989923120779155313e-02
3.574662495799337675e-02
3.090806701650249816e-02
1.743528179059100278e-02
-2.540087044753060641e-04
-1.705901907759871036e-02
-2.877344192644946952e-02
-3.240590348545853427e-02
-2.597170131540887938e-02
-1.008468844732690259e-02
9.347026406463490936e-03
2.202082014865425208e-02
2.011828837191211722e-02
5.666106294288224612e-03
-1.036793604739358679e-02
-1.790533756310599620e-02
-1.614795813560571808e-02
-1.110597092813929605e-02
-6.270638572579825820e-03
9.610043046574374102e-04
1.301828203363430102e-02
2.596132487494834037e-02
3.270605404303478930e-02
3.115297263121913351e-02
2.604234253472326871e-02
2.266710341590159536e-02
2.138330769214723953e-02
1.931324696281816120e-02
1.519879048229695259e-02
1.052110747929518864e-02
6.979322858665634732e-03
5.140282906984697774e-03
5.385898063407955176e-03
7.955589089789404100e-03
1.116030992042777066e-02
1.123779568882127960e-02
5.821134589155667338e-03
-2.891291014126775531e-03
-1.021179707080761313e-02
-1.449444769819102294e-02
-1.891722194525186779e-02
-2.672144688559793813e-02
-3.596913825832506739e-02
-4.096198003871431848e-02
-3.918822855916529596e-02
-3.574373823415488705e-02
-3.985463553466919023e-02
-5.679887717204545189e-02
-8.316662149510024860e-02
-1.092060336854861063e-01
-1.248472420071942979e-01
-1.245097837183871681e-01
-1.092154449456152893e-01
-8.592234064059950382e-02
-6.350758818657588345e-02
-4.731113943347971251e-02
-3.697886665571233078e-02
-2.944644617046381085e-02
-2.292035644207691264e-02
-1.692688596292066250e-02
-9.502762264493459787e-03
2.790236118436014660e-03
2.046835331293837823e-02
3.842305791395797532e-02
5.015917773453232309e-02
5.477795105861259228e-02
5.789614213328789921e-02
6.500793334562865455e-02
7.523461572362216687e-02
8.249002387997540764e-02
8.177853912626426025e-02
7.314104004946629656e-02
6.011633330216849258e-02
4.624094180837000356e-02
3.379740659876333958e-02
2.463744954641795132e-02
2.026098255679884344e-02
2.050802707672023939e-02
2.315399926242952405e-02
2.563124309061331346e-02
2.676654472057861736e-02
2.633618141818451497e-02
2.374467616396114603e-02
1.850697696573856688e-02
1.200318612096592033e-02
7.381812379536332666e-03
6.917558803389475472e-03
9.857813810346198122e-03
1.319297250981472762e-02
1.417596788184593247e-02
1.201094629086718081e-02
7.875238645558007775e-03
4.032107169934595094e-03
2.603008828355676992e-03
4.218094640952622064e-03
7.326602500641139423e-03
9.093216351638233608e-03
7.548587521528617866e-03
3.286863714266385732e-03
-9.868099374054980100e-04
-3.279931034204502330e-03
-5.173309324400710354e-03
-1.074570721792243722e-02
-2.109289981922914808e-02
-3.098454969869401943e-02
-3.372924637522328045e-02
-2.924457095782691946e-02
-2.423177561328553400e-02
-2.340164898781066372e-02
-2.319106816747365171e-02
-1.629090482176865501e-02
-1.354557276124637635e-03
1.401820336498599967e-02
2.068729525325650742e-02
1.724741607738498883e-02
1.083741659646609082e-02
9.496645368538284698e-03
1.528426057105234694e-02
2.455126285814800136e-02
3.268711584780151225e-02
3.727200941246379406e-02
3.767622416215704595e-02
3.378668167643569115e-02
2.645545477207947652e-02
1.864555827150006159e-02
1.437457643953492237e-02
1.549929219756383640e-02
2.004086324096648192e-02
2.412085529661492020e-02
2.497489250825948165e-02
2.200670921825094439e-02
1.607359161709587606e-02
8.491929811261266989e-03
2.224799484902498649e-04
-8.504508749128577780e-03
-1.764472116815811800e-02
-2.648694680591128295e-02
-3.390843872888735233e-02
-3.971166215263962490e-02
-4.520196261967156237e-02
-5.190668723255729977e-02
-5.973693282543816874e-02
-6.656825361677858044e-02
-6.950210490968539156e-02
-6.660867258344632669e-02
-5.810725991865022672e-02
-4.638529812604278574e-02
-3.451171334129812807e-02
-2.405705150240604329e-02
-1.438985809256701151e-02
-4.517449982925435259e-03
4.854397637984534872e-03
1.214672088877654516e-02
1.739362832304706952e-02
2.200758273415173369e-02
2.551049598215351585e-02
2.443305336547865747e-02
1.628732627605703615e-02
4.019794068601276714e-03
-5.411819792565272097e-03
-7.430559567502412893e-03
-3.566936689940406607e-03
1.679529255769347893e-03
6.228568767278123280e-03
1.173388750941710065e-02
2.071460951820407181e-02
3.331407147990062684e-02
4.597285128741428195e-02
5.281505934996231361e-02
4.978229015509662292e-02
3.869295190205708501e-02
2.691371508376007651e-02
2.208315524574794644e-02
2.616239763818906799e-02
3.377358731070062570e-02
3.657272808163231775e-02
3.043803882491476209e-02
1.892675548113538497e-02
9.573104887041168631e-03
7.293597022815411640e-03
1.161477113715270008e-02
1.856752058108920161e-02
2.337650053088318608e-02
2.246186086050103517e-02
1.572289996725023675e-02
7.327229019281330212e-03
2.222521570643525794e-03
1.061491706682242148e-03
-1.632040305872217386e-04
-4.922542568401649769e-03
-1.196161818394567318e-02
-1.732820707521713285e-02
-1.938414307835056166e-02
-1.992039022835346077e-02
-2.062915096495744269e-02
-2.071168243056892289e-02
-1.890563322644167252e-02
-1.640804000455855366e-02
-1.644496946507992621e-02
-2.138275027034090489e-02
-3.061511570503626725e-02
-4.003248804029261448e-02
-4.294236863069812032e-02
-3.371319098738469883e-02
-1.303511864197666285e-02
1.093556562696537150e-02
2.858528863873162351e-02
3.612844183839232504e-02
3.652803485599088323e-02
3.481164815531408163e-02
3.414483273922837292e-02
3.525677883783024519e-02
3.730755261498421016e-02
3.891974651339872443e-02
3.917270660063552207e-02
3.762160763579077555e-02
3.354420954410541195e-02
2.651042061563207292e-02
1.814281582973907223e-02
1.159515482545723369e-02
7.951940411560852462e-03
4.348385949201841877e-03
-2.608208856193621524e-03
-1.191590127222778850e-02
-1.812852608811969454e-02
-1.640202336928818505e-02
-6.852319233432893619e-03
5.811370314752341108e-03
1.591928093872707617e-02
2.028910686199150715e-02
1.949293748018357531e-02
1.640851161399584437e-02
1.302533813769959220e-02
8.328846590016338730e-03
-4.621852357800772595e-04
-1.460871226989289735e-02
-3.215751689311038136e-02
-4.961619370544342877e-02
-6.510281783033117220e-02
-7.950806818116308572e-02
-9.426001386038058982e-02
-1.081945179231683513e-01
-1.174054626549621977e-01
-1.185225119526649856e-01
-1.117589512409033203e-01
-1.005128219641221038e-01
-8.819571851091974335e-02
-7.548474088293082029e-02
-6.042224523665191277e-02
-4.108185742398604012e-02
-1.796443037439518844e-02
6.680862039045280115e-03
3.165857281559594089e-02
5.732560164013147941e-02
8.227556112088912910e-02
1.013171276771371310e-01
1.093323040275373387e-01
1.067922173217263626e-01
9.920178683765953909e-02
9.110191515042939669e-02
8.279087979818693099e-02
7.328908840205788922e-02
6.419523461086007465e-02
5.886927628112733485e-02
5.840019911354619314e-02
5.968887631135831595e-02
5.794621381029856078e-02
5.098315471671657079e-02
4.106040181250913967e-02
3.251087485759032031e-02
2.747670163875275476e-02
2.408200072412045034e-02
1.873687443852282974e-02
9.766485054763690207e-03
-1.461281308457632521e-03
-1.241608497712885957e-02
-2.159358153618649856e-02
-2.884627565887605896e-02
-3.447515740815325358e-02
-3.863176836947623122e-02
-4.105381045595242473e-02
-4.070026669605907033e-02
-3.619665025325350532e-02
-2.746866911292840038e-02
-1.653259400114732991e-02
-5.945533550653516082e-03
3.024337599458663903e-03
9.752380790149697137e-03
1.234111443941682089e-02
8.425437858560740761e-03
-7.509683964171219714e-04
-8.306169412132930613e-03
-6.515406517861812956e-03
5.106599664063639875e-03
1.787945038347192941e-02
2.190703761998913368e-02
1.586448453413431478e-02
7.775512455209076211e-03
6.378030103350118205e-03
1.329414033055231932e-02
2.389775876775288715e-02
3.357348120258384777e-02
4.103238613536851209e-02
4.662606540542039296e-02
5.023927542039247074e-02
5.150145784540108296e-02
5.055969666717806399e-02
4.786649618024894220e-02
4.366454794240703235e-02
3.799500434218822109e-02
3.120076358235339409e-02
2.432036248760638397e-02
1.861449768162200605e-02
1.450833028851589157e-02
1.140667590989192723e-02
8.819677458078540103e-03
7.179581576198079684e-03
7.056295417621861327e-03
7.895160968372774354e-03
8.152765179084316138e-03
6.778053211096128454e-03
4.294250721755379745e-03
2.227561018504745777e-03
1.390100424641605315e-03
7.957196097781480760e-04
-1.666901467352847974e-03
-7.706110217605094057e-03
-1.762214135650339714e-02
-2.969788341281649063e-02
-3.979049283528313802e-02
-4.247841835771513919e-02
-3.433397119308972956e-02
-1.699097570023225950e-02
2.985695864848451984e-03
1.794407803548543276e-02
2.408907876926430144e-02
2.341348142511171654e-02
2.068818999500211461e-02
1.860637528904887650e-02
1.625505993458127227e-02
1.186510473748110528e-02
5.629431652008421057e-03
-8.469024995506105845e-04
-6.815425154563996973e-03
-1.266312244140964556e-02
-1.789877785800840851e-02
-2.012836727826819092e-02
-1.701122435760357710e-02
-9.029714084362611831e-03
4.193400956289066828e-04
7.926377139838361452e-03
1.263275008558086519e-02
1.560386593429528845e-02
1.733793127538955231e-02
1.709457837331183894e-02
1.479119887007609123e-02
1.223821001722471928e-02
1.151168574146164796e-02
1.265492060909828055e-02
1.395748898798976345e-02
1.440328276675504997e-02
1.491759271998839564e-02
1.672392891906715126e-02
1.910683786473503509e-02
1.989783074735925958e-02
1.829444443847787552e-02
1.604702316542202037e-02
1.517324975918915055e-02
1.547453401010434083e-02
1.541632834208967254e-02
1.478986644288703307e-02
1.495862541862766175e-02
1.641963278374368798e-02
1.756351648098128382e-02
1.651655209853458706e-02
1.329252025493652713e-02
9.279461444204753842e-03
5.210124705177826727e-03
9.438580894023356881e-04
-2.661534038030770495e-03
-3.356985973283118426e-03
-3.455367226084722111e-04
3.450517917160511767e-03
3.772764158043160222e-03
-4.675572289897659607e-04
-6.446180085963336415e-03
-1.080993999940411433e-02
-1.202199866420460353e-02
-9.741682605879225035e-03
-4.788634338398580804e-03
-8.376940175307244236e-04
-3.587093759515780529e-03
-1.558420518182739370e-02
-3.217583164746887908e-02
-4.452236901830729926e-02
-4.758090445659843987e-02
-4.447487664364086629e-02
-4.224457153954280092e-02
-4.398855286202317527e-02
-4.637885241290450045e-02
-4.433797032776395919e-02
-3.631894292463488938e-02
-2.442436052919498210e-02
-1.050895816446748704e-02
6.119499951730070220e-03
2.564269576252987612e-02
4.270451058922863918e-02
4.780980415096973413e-02
3.695271183903322404e-02
1.841542218289790589e-02
5.965885412846427815e-03
4.871732630267836331e-03
7.829764969541535072e-03
5.290069637968182296e-03
-4.037498659173540012e-03
-1.543692204664004475e-02
-2.798038267103676591e-02
-4.708114570217229733e-02
-7.594890098998732797e-02
-1.078619947376528720e-01
-1.305171884728085208e-01
-1.376995797408024358e-01
-1.340464955901705391e-01
-1.282585159767748173e-01
-1.244947925927372967e-01
-1.215291504798503841e-01
-1.176342144984434124e-01
-1.134316073630543542e-01
-1.101971363530648423e-01
-1.073517518323744840e-01
-1.023559230719641860e-01
-9.199738394675452402e-02
-7.308867299882744473e-02
-4.330548294516825547e-02
-3.248851104969032247e-03
4.240364636739536730e-02
8.722414630317217032e-02
1.268280758482553117e-01
1.591863361689215273e-01
1.808828778169097040e-01
1.856884480822140193e-01
1.701227809237113031e-01
1.398792861857838798e-01
1.072192762541183536e-01
8.103796639032331828e-02
6.162959588342518946e-02
4.535342885355767711e-02
3.130519024423061153e-02
2.149552587277979432e-02
1.618964776783198695e-02
1.177690284900389552e-02
4.137139376683393426e-03
-6.710225861048080276e-03
-1.647729479165065819e-02
-2.146118612800744160e-02
-2.260955873679834291e-02
-2.374592585536452680e-02
-2.638657216671616568e-02
-2.776935925283192594e-02
-2.374278409880128948e-02
-1.228584606930754018e-02
4.892211793147554187e-03
2.193471769147487677e-02
3.093812633240890231e-02
2.807839197004143375e-02
1.831883000208989892e-02
1.126459355065278188e-02
1.152927606001272719e-02
1.544552246677133832e-02
1.766315994668915534e-02
1.786587608355606760e-02
1.920366030111371122e-02
2.269485654663681157e-02
2.610878314583097923e-02
2.722795509928932836e-02
2.545402296516685939e-02
2.076449265774127362e-02
1.396606512289782012e-02
8.250208406469795516e-03
7.777879322971412331e-03
1.326250735010551206e-02
2.032473018454095809e-02
2.353033186459770748e-02
2.144008128131838151e-02
1.689371773321701395e-02
1.302178702924596497e-02
1.014444833660486933e-02
6.744389175389320194e-03
2.724509813538753249e-03
8.523217712662294445e-04
4.459663733626451250e-03
1.370043868160442796e-02
2.476633967406347697e-02
3.354855641762605895e-02
3.961011879924018070e-02
4.527076241296968534e-02
5.098921140013353004e-02
5.368016307946874704e-02
5.059987263494716836e-02
4.347908310684406308e-02
3.725830682259141657e-02
3.506541523470152466e-02
3.551615204655086955e-02
3.488166916093384667e-02
3.093402825048010771e-02
2.436144215211526187e-02
1.727149459147868035e-02
1.133804924351616839e-02
7.364811350009637346e-03
5.459028771974148986e-03
4.783657837899246701e-03
3.710829782541836576e-03
1.059517189365783959e-03
-3.030054354162341722e-03
-7.862272218608351917e-03
-1.326368601243244592e-02
-1.924668102807295875e-02
-2.504677847757000655e-02
-2.917610345838042227e-02
-3.010095850899019085e-02
-2.634528265548486542e-02
-1.667170913059570075e-02
-1.616465316174860037e-03
1.489227418199659536e-02
2.680888325859541454e-02
3.019013583903367923e-02
2.619625610212077474e-02
1.958460778280357931e-02
1.471529050857364393e-02
1.344087192476903052e-02
1.570907183664711076e-02
2.016749650247244216e-02
2.390576567724809684e-02
2.375432954853965578e-02
1.945884428078077655e-02
1.458265329230283222e-02
1.290810312551743042e-02
1.458928382052201295e-02
1.681428173845954388e-02
1.737197004136254927e-02
1.626552121525595002e-02
1.429650131873282971e-02
1.163425394611017523e-02
8.344161151670720367e-03
5.455507975959576240e-03
4.565443793038385586e-03
6.300971858540511950e-03
9.386635092674849509e-03
1.109712862570298546e-02
8.649790414739769520e-03
9.818574135771382903e-04
-9.839434291405567412e-03
-1.891150862215949802e-02
-2.113564351055213092e-02
-1.479343136126658360e-02
-3.274339506956155683e-03
7.113079559640483711e-03
1.216060427923028667e-02
1.295898076027430026e-02
1.360712752418121070e-02
1.612663392984821364e-02
1.893362344324953789e-02
2.012451703077492923e-02
2.015000139053280126e-02
2.019930373225212530e-02
1.942302541533168919e-02
1.533245694861230107e-02
6.707983829968310052e-03
-4.597591220481624108e-03
-1.459214363554766497e-02
-1.977206335228032588e-02
-1.951044423267234151e-02
-1.650124073350002496e-02
-1.475505768992062781e-02
-1.646123207216324338e-02
-2.016364895485106903e-02
-2.209248743947685167e-02
-1.971262277277964839e-02
-1.372034131334114171e-02
-6.199176161551472539e-03
2.346673920410150081e-03
1.298897416698365295e-02
2.573728319499489839e-02
3.794777904061791274e-02
4.551957407986375465e-02
4.564855912950955413e-02
3.922842243287003039e-02
3.083623172026410397e-02
2.522895413614224119e-02
2.337256828059271208e-02
2.306385007215614596e-02
2.359240204249971745e-02
2.752181964359145042e-02
3.627367452430834555e-02
4.562643280477888391e-02
4.825182288477706388e-02
4.094106755063014330e-02
2.774845396619278134e-02
1.555062142087145979e-02
7.581933950893021343e-03
1.813540320404218552e-03
-5.444818716550043833e-03
-1.593987968534178387e-02
-2.978636805662144768e-02
-4.758405113290405802e-02
-6.954195160426661360e-02
-9.202171348455762123e-02
-1.077257050313633613e-01
-1.118906775937662940e-01
-1.074844307008894218e-01
-1.020512865820864812e-01
-9.949232317993413066e-02
-9.691162123272899220e-02
-9.006698837649190770e-02
-8.000792644194776315e-02
-7.248988882167677061e-02
-7.121946087322182650e-02
-7.332825598240721998e-02
-7.229766564397571704e-02
-6.515180131719040812e-02
-5.656306900839876139e-02
-5.509551911293692622e-02
-6.378461747892988365e-02
-7.444219123037974783e-02
-7.423526469985224086e-02
-6.002729975010703128e-02
-4.388012923745035487e-02
-4.108661775978079966e-02
-5.424695484515301008e-02
-7.261083447872578034e-02
-8.501998695495087410e-02
-8.829896181151984658e-02
-8.435219214649308794e-02
-7.586381721553830948e-02
-6.610854582921815714e-02
-5.776965678460273951e-02
-5.025657424439419069e-02
-4.192514363761407764e-02
-3.548538203488604131e-02
-3.632396943670305328e-02
-4.318387404117578210e-02
-4.460711509646538703e-02
-2.875395589828584966e-02
4.204704726582339513e-03
4.176185590287635058e-02
7.018168747805206276e-02
8.439379470051830423e-02
8.862026547139044419e-02
9.042822893964669317e-02
9.495738983485917106e-02
1.030197889258181038e-01
1.123304854983208506e-01
1.195884830151796724e-01
1.223931148317893014e-01
1.205528090570788385e-01
1.156175125749415722e-01
1.087310353426988868e-01
9.951492351816738913e-02
8.770104277207119159e-02
7.512154783102585609e-02
6.492951153215333060e-02
5.880882507189168218e-02
5.545852736199986116e-02
5.190330690137920366e-02
4.634378447908205079e-02
4.006383794133040049e-02
3.667996830040073236e-02
3.918722534652045730e-02
4.710064743843637991e-02
5.601944888547905066e-02
6.037086082441904533e-02
5.757127131424677469e-02
4.987943579253127646e-02
4.177831228308033495e-02
3.560235263565843938e-02
3.037891267389504144e-02
2.473397009318330925e-02
1.961162292981320429e-02
1.735217721804797539e-02
1.859736820968821772e-02
2.096166752225152308e-02
2.112721765445442837e-02
1.800444186070116262e-02
1.331691966283687564e-02
9.186017494100978328e-03
6.162131613619924349e-03
4.185219029679249948e-03
4.272283012353580815e-03
7.357473501403723019e-03
1.126311242509487123e-02
1.078479300622448012e-02
2.555809271108809046e-03
-1.061685920550658850e-02
-2.169140397172312357e-02
-2.574313439988954941e-02
-2.344595038490521546e-02
-1.829016657927757736e-02
-1.181454955626205783e-02
-2.897784892037823419e-03
8.590615360545438353e-03
1.918865189852266007e-02
2.420080087318751336e-02
2.238964221669572860e-02
1.730901625741263980e-02
1.360346021741026812e-02
1.246372171123031128e-02
1.130021957439844918e-02
7.736235994801637060e-03
3.025207241269178924e-03
1.039187129298036047e-03
4.619788048742233880e-03
1.360499856892155406e-02
2.534919705265381920e-02
3.550915314902127612e-02
3.906616519496833306e-02
3.350389632459768730e-02
2.225851803704948992e-02
1.314856621599819718e-02
1.150167337932688633e-02
1.538493061386123420e-02
1.863040330437621545e-02
1.762229988871332961e-02
1.374504145668461325e-02
1.009282822133534228e-02
8.071229862304228966e-03
7.648104703045890788e-03
8.980343932107347910e-03
1.216302939964011495e-02
1.585899662600642746e-02
1.764068779189906927e-02
1.626647594786433115e-02
1.305441151571941696e-02
1.040673751494547612e-02
9.178233719435985663e-03
8.108876549430519415e-03
5.871442667437996518e-03
2.960090563482587703e-03
1.015998377071214692e-03
5.376344753566432043e-04
-2.575846497428377653e-05
-2.388182311749365884e-03
-5.869414068721303702e-03
-7.702100690250075765e-03
-6.528020487547034692e-03
-4.746584772519585500e-03
-5.916776565222494136e-03
-9.819026148131387161e-03
-1.167790235490462694e-02
-7.279860558935529781e-03
1.924774743705900439e-03
9.965731789975642435e-03
1.232062928493211917e-02
9.608757917924242581e-03
5.507649606983348010e-03
2.713820728160454276e-03
1.730837974273504798e-03
2.211285337360741239e-03
3.805354513107897258e-03
5.648256656204964435e-03
6.216757144128635948e-03
4.669855943618466884e-03
2.133840733466166404e-03
7.611464681574972319e-04
1.294619067193358408e-03
2.252305031626011724e-03
1.928066813865362888e-03
7.054935428205040028e-04
7.104354714911959500e-04
3.165627832780260401e-03
6.721351094159023001e-03
8.838465240341810900e-03
8.475896364369716815e-03
6.654622515642655105e-03
4.047503336760159727e-03
-1.236591872846235169e-03
-1.188173041218833388e-02
-2.657788696142962884e-02
-3.841957361171305374e-02
-4.032900003143487233e-02
-3.240641423410581257e-02
-2.249776639388823690e-02
-1.902394709647366525e-02
-2.433025992869747994e-02
-3.536486133963471362e-02
-4.895294550294750774e-02
-6.420840162129431983e-02
-7.979336988718803425e-02
-9.054734719339238569e-02
-8.813903747732658445e-02
-6.572218674886061429e-02
-2.332897573664183266e-02
2.952093365251394139e-02
7.662989871033587530e-02
1.034022456153615294e-01
1.054694730092405608e-01
9.006879525296448974e-02
6.888316250032308630e-02
4.990940794276590292e-02
3.521086555085370384e-02
2.338629993290827075e-02
1.280159698922015213e-02
4.422454962344489829e-03
2.744280533021923457e-03
1.207988435447434304e-02
3.045215909316832323e-02
4.854641489834488760e-02
5.644735425835804149e-02
5.121228844049645346e-02
3.746927267729637662e-02
2.226417385508549021e-02
1.106477710237528840e-02
7.200367070194720748e-03
1.133815788343932145e-02
1.993080484041914041e-02
2.631451703387226518e-02
2.585719710778732958e-02
2.010103566293324623e-02
1.467889745413267222e-02
1.321072981804356436e-02
1.429526075968404544e-02
1.455714648375821922e-02
1.333092806860511695e-02
1.331256575675919540e-02
1.700209120323669179e-02
2.344586348466426787e-02
2.871965639507821980e-02
2.944531184634766388e-02
2.598760414429965998e-02
2.236485479713292562e-02
2.261871128717056825e-02
2.668457726911043632e-02
2.999787775058650532e-02
2.792750858538861278e-02
2.062130585003973254e-02
1.274720124012170865e-02
8.543911534219027909e-03
7.872577136405113293e-03
6.621781067333999682e-03
-3.005225840010819841e-04
-1.573052010008597207e-02
-3.747553292771368255e-02
-5.788406841239922274e-02
-6.840915059222389683e-02
-6.707101881650008590e-02
-6.120534645015086872e-02
-6.099589853668740264e-02
-6.958085712253637978e-02
-8.032673307830941190e-02
-8.419797377660669102e-02
-7.860237162201878791e-02
-6.779980283490781579e-02
-5.589126046046712093e-02
-4.219668458923369475e-02
-2.366948360517677832e-02
9.428304091826666695e-04
2.980887385255289249e-02
5.778908307215424589e-02
7.704339198183393633e-02
8.205301073073111018e-02
7.613454560199045540e-02
6.974045252315023979e-02
6.984376571317844895e-02
7.312860598519170530e-02
7.144253549207253695e-02
6.159562382212386417e-02
4.735342122095489298e-02
3.360874090459326641e-02
2.201913774081453584e-02
1.250015948864255551e-02
6.015177107282664547e-03
3.755121142061931816e-03
4.216911197383091912e-03
3.108363105316552626e-03
-2.514195251415426990e-03
-1.028175128068023296e-02
-1.403935382827029010e-02
-1.008620530720260276e-02
-1.084895310418998665e-03
7.145133968779855509e-03
1.202782359980745890e-02
1.614214118141044790e-02
2.286956786518912904e-02
3.145289174538436899e-02
3.709905548578423806e-02
3.545403397128412543e-02
2.641172655467242947e-02
1.402048569395967885e-02
3.502272927263825036e-03
-1.789512688968700064e-03
-1.652656497553570787e-03
1.454520759187213257e-03
3.795405745897005578e-03
2.126774744610434621e-03
-4.596706751962493891e-03
-1.467703220771546073e-02
-2.473405198288694540e-02
-3.151274458528752903e-02
-3.363378969033627847e-02
-3.259476408496012056e-02
-3.196707692922689387e-02
-3.513132707434259150e-02
-4.359738089604565242e-02
-5.676370336555183749e-02
-7.217477256489533699e-02
-8.606718141941775702e-02
-9.482587093365027475e-02
-9.654452189156582931e-02
-9.089945574343501200e-02
-7.739377662595889329e-02
-5.451255623725280441e-02
-2.196167983951156921e-02
1.577205963511961809e-02
4.965078512685436318e-02
7.185084055392076952e-02
8.128344036094782565e-02
8.275208815783116623e-02
8.174639786955426035e-02
8.087641156901236028e-02
7.951528838313913494e-02
7.485569375824328853e-02
6.414315368559003749e-02
4.790957470618693870e-02
3.112571630850121882e-02
1.977352884999248467e-02
1.580618077176943609e-02
1.616834905177076329e-02
1.680665618370234468e-02
1.662290008024226717e-02
1.703126482367478545e-02
1.857708687222412933e-02
1.936334330210923854e-02
1.738346901219043131e-02
1.381790423299217134e-02
1.290888984708514486e-02
1.801191507780142489e-02
2.795720364823933365e-02
3.751755756329035879e-02
4.146690562321152240e-02
3.835107153932955371e-02
3.073117892474928198e-02
2.241513615871494267e-02
1.588388320954359570e-02
1.173964988546851579e-02
9.380013471154349455e-03
7.954253288755127119e-03
7.291884663956351049e-03
7.884267543659615948e-03
9.471437596436569489e-03
1.010217799224204065e-02
7.714577057204688275e-03
2.722391736965446788e-03
-2.048113098158664633e-03
-4.271693570263978418e-03
-3.785678646221652364e-03
-8.338955800347579335e-04
5.616980038386583558e-03
1.597251011411601404e-02
2.752382203502964572e-02
3.650448974661388291e-02
4.245163559958001903e-02
4.771922480772305963e-02
5.229062331049284806e-02
5.215553810577560484e-02
4.429552033636650205e-02
3.099561480012711853e-02
1.736559051931065370e-02
5.989705837213094540e-03
-4.045332895471711980e-03
-1.351374895875328587e-02
-2.088583926600502683e-02
-2.489277616915845995e-02
-2.769413767176330879e-02
-3.321241813501024653e-02
-4.210259593709233389e-02
-4.999090886926580574e-02
-5.145256613466159951e-02
-4.492595864404664435e-02
-3.339426372063917375e-02
-2.150994439990414758e-02
-1.333948635938288392e-02
-1.206619132120169760e-02
-1.888675333371892320e-02
-2.975514869237063861e-02
-3.402646112923690680e-02
-1.996360684625707663e-02
1.491439590910825785e-02
5.825916077538034060e-02
8.981158491606192062e-02
9.651897874162257418e-02
8.175514144041717834e-02
5.947713398906151472e-02
3.996942303596522084e-02
2.256457314538156539e-02
1.768360717871837783e-03
-2.244456032036631563e-02
-4.251207385528302241e-02
-5.009337903120855695e-02
-4.276894376016122934e-02
-2.445926927385356359e-02
-1.403862510265026274e-03
2.162619980247352039e-02
4.193185985835693602e-02
5.621092952217933425e-02
5.875478403194686616e-02
4.575254574882064995e-02
2.283844950550219244e-02
4.692200171924488204e-03
2.575652874972286788e-03
1.267005093771282273e-02
2.064247257883071451e-02
1.845202079337818907e-02
1.267264450959697253e-02
1.397543467994128048e-02
2.218731165875317130e-02
2.652985809673849560e-02
1.969339816612148200e-02
6.785265774863420349e-03
-1.444144588468135619e-03
-9.336955161561745617e-04
3.301790801309960853e-03
5.671435299131520613e-03
7.109073074438174850e-03
1.260920106375100838e-02
2.413601796713374728e-02
3.813218182211079027e-02
4.909660745380862307e-02
5.358544917892649195e-02
5.109767256042871408e-02
4.332815828080745918e-02
3.330713923099501428e-02
2.385974488508218333e-02
1.590248521250868172e-02
8.706191802685902398e-03
1.980658861169422823e-03
-3.330678109844772278e-03
-6.702402565019962774e-03
-9.092797093623660593e-03
-1.122331497962150530e-02
-1.175256813305847192e-02
-8.842211953580259021e-03
-3.686907422989798688e-03
-1.221703070450752852e-03
-6.155676294266662803e-03
-1.797056574184978384e-02
-3.028808266406426628e-02
-3.582791111180955168e-02
-3.209777846166404769e-02
-2.218449567355548421e-02
-1.088489100308580489e-02
-1.329572104426749585e-03
4.821103575349248473e-03
5.894602789784554250e-03
9.766875707760125629e-04
-7.723160790063324406e-03
-1.506024896742591719e-02
-1.706532031815965675e-02
-1.466377056087942062e-02
-1.238601446227740113e-02
-1.337930672240263998e-02
-1.621031159819968925e-02
-1.647791661705803878e-02
-1.119673042813592104e-02
-1.841377336393590445e-03
6.616687596204363225e-03
1.034371800165045756e-02
1.117713519826483461e-02
1.600242962997327004e-02
3.034232084288357792e-02
5.245947672799429473e-02
7.433724779075570610e-02
8.798088539585376122e-02
9.027933285563825849e-02
8.310832671036896824e-02
7.064716834029752257e-02
5.664296851153557272e-02
4.295793222895862018e-02
3.007533495366431289e-02
1.883927730900334524e-02
1.098979933038238786e-02
7.562909635917053862e-03
7.723319501223427537e-03
1.016273098870327553e-02
1.486070876874275200e-02
2.201394963735484392e-02
2.951108410641246904e-02
3.327056614494632025e-02
3.100412568973510974e-02
2.487696786740410670e-02
1.951601159711060726e-02
1.734507973772673670e-02
1.625962261277671961e-02
1.234271163775791866e-02
5.117982883478342654e-03
-7.375654855308740000e-04
-2.946846917548468447e-04
5.498189860794528219e-03
1.068320515321377791e-02
1.132101417796285356e-02
9.129493437270555511e-03
7.521608413230016117e-03
7.016791487593703781e-03
6.551248317180416447e-03
6.951238048251842834e-03
9.892260034421177656e-03
1.397628522008203394e-02
1.488567716199556967e-02
1.050959939127958133e-02
4.190671480464391342e-03
1.453617996191794784e-03
4.270558049486561369e-03
9.755118573637519552e-03
1.389654427393282807e-02
1.484821083623737853e-02
1.224894043695570235e-02
5.199136255722510910e-03
-7.071497836332961591e-03
-2.254134639358406147e-02
-3.612367185347139381e-02
-4.333147905962766999e-02
-4.378475075208829864e-02
-3.997397138700237856e-02
-3.278464909882643913e-02
-2.024300419860399630e-02
-2.217379420865025780e-03
1.506130748459062405e-02
2.224676079473248552e-02
1.536495002336678815e-02
-8.846015902135068078e-04
-1.867338982108357123e-02
-3.346998071396572322e-02
-4.408569912708230204e-02
-4.932539736053796753e-02
-4.771912924159269626e-02
-4.030227922244557226e-02
-3.151630566491036428e-02
-2.630466405748207309e-02
-2.660991385201488466e-02
-3.096946429250418617e-02
-3.692143082144667271e-02
-4.281140329875979950e-02
-4.726385226061693284e-02
-4.799140872182384998e-02
-4.142403376656250691e-02
-2.293511619928870204e-02
1.097763900888371232e-02
5.681901703122318320e-02
9.955910706387836873e-02
1.191209768187278251e-01
1.069535912341778860e-01
7.570801008522669295e-02
4.846587093871145696e-02
3.755426338417400950e-02
3.639131354455194672e-02
3.199781958265946608e-02
2.128722032567999245e-02
1.241671563481636618e-02
1.297223727586163319e-02
2.130959394330868978e-02
2.986125646067512227e-02
3.341460897159635735e-02
3.191717848826078341e-02
2.714817758971347153e-02
1.992079335399469381e-02
1.083198730752332056e-02
1.401672212318956327e-03
-6.862045085922497192e-03
-1.368418758072939730e-02
-1.930996013571158187e-02
-2.274060077823314777e-02
-2.144033817440506653e-02
-1.333253662282060138e-02
6.634471739506732618e-04
1.594091685465411426e-02
2.640515200923585978e-02
2.857998759166830924e-02
2.457583862198774519e-02
2.046588467955373636e-02
2.042896104877718264e-02
2.249817291445009582e-02
2.107806444251747111e-02
1.352524565091743972e-02
3.350439298655575725e-03
-2.533342062651050206e-03
1.410669621291274316e-03
1.568883507479317679e-02
3.325640221215444420e-02
4.071642870338455789e-02
2.739774621407401606e-02
-3.065915827914631603e-03
-3.313469220371114549e-02
-4.742069801715369237e-02
-4.733817709205462299e-02
-4.689877665480293029e-02
-5.533749755340833243e-02
-6.791328640247583370e-02
-7.440857256358206218e-02
-7.304206708271211712e-02
-7.329545302998698164e-02
-8.596158289829816668e-02
-1.119201206335436738e-01
-1.401490619080751621e-01
-1.559576528274947416e-01
-1.517616710325281615e-01
-1.303476659085108791e-01
-9.844592522459202910e-02
-6.070497705677403016e-02
-2.293796052911167838e-02
