1.983621959395978542e-03
6.745433991522025163e-01
5.479865029124155740e-01
1.710909410218125759e-01
8.694374858875600354e-02
1.767748278805186812e-01
1.867764889258237138e-01
1.566814525512491285e-01
8.101517087369795866e-02
2.587768104251564338e-01
2.061000196741647958e-02
9.298552988251847229e-02
7.153700673028932921e-02
4.235874938366771675e-02
1.029631237058965254e-01
8.299430604181175231e-02
1.014048631503519093e-01
4.380986071005843474e-02
9.802173381811370156e-02
1.139215733978609681e-02
5.688479390435647459e-02
5.826940067784054655e-02
3.967469427008098876e-02
2.356004727001617671e-02
1.998334376644180302e-02
4.714527442644449867e-02
3.829799407626203328e-02
6.497066503658667502e-02
1.023391341279312333e-01
2.915949296057208408e-03
6.063403775530885192e-02
3.295049955477149378e-02
2.767571011726412816e-02
7.409444174111004533e-02
1.098480798758741245e-01
1.455619824440484156e-01
1.525339882078423359e-01
1.665354470639885398e-01
1.645644575538185439e-01
1.842620025859252608e-01
8.826491304386348269e-02
1.212518619688347510e-01
1.173987946799602139e-01
9.233590323823297197e-02
1.462820246758053111e-01
1.021038997137373311e-01
1.323072183157826265e-01
1.929011304668468707e-01
3.158404829226691413e-01
1.312497166134360682e-01
4.544953265224781214e-02
8.516871382261695378e-02
2.196614946268379553e-01
2.054819036030331170e-01
2.248854957273062616e-01
1.809527767008578258e-01
1.701585265874598629e-01
1.471056501240051440e-01
3.354326510792183802e-01
2.277093589833534826e-01
1.784397654035392300e-01
3.101778551918825677e-01
4.033995442060770431e-01
1.375678605217364181e-01
2.221607896642950331e-01
2.414404056152953393e-01
3.250960523831511462e-01
2.597912926636649633e-01
2.891793215736170319e-01
3.108149472032944449e-01
4.085587145618996274e-01
4.037409457441450966e-01
7.914897417030698490e-01
5.668293853970434171e-01
1.750490002035853809e-01
6.392270712684564593e-01
1.674987052674161148e-01
2.598321891258407734e-01
3.103424902604876023e-01
1.330940733037244417e-01
1.815845623537010733e-01
3.967393447557621133e-01
1.558389880714586007e-01
2.359845324848658110e-01
2.318828261017666370e-01
2.050677055274304772e-01
5.426182508604787680e-01
1.100245815430754698e-01
4.306195931437789559e-01
5.787587639524549576e-01
1.243361417862732660e-01
2.075403450837048913e-01
2.590079401749120769e-01
7.197832183378066739e-01
3.164230541456178325e-01
4.115888614854825711e-01
2.076931044739708243e-01
2.956443593062462738e-01
5.661314521059327420e-01
1.430499067154072379e-01
5.750694690171962442e-01
3.780077281410451073e-01
8.795627839602314646e-01
1.288742648855190354e-01
1.888167397302393247e-01
2.715667129575544125e-01
2.912397179682840176e-01
6.731715816406578234e-01
1.502564132114390660e-01
1.849753694367613222e-01
5.635066686969163463e-01
3.280489108085950511e-01
3.609846811552857027e-01
2.248341142549880878e-01
3.772247531048423808e-01
4.796272089663895510e-01
5.792550239043701144e-01
7.985787161954618352e-01
5.833281637896001737e-01
1.574699566541943874e-01
2.053844341004461838e-01
2.755351506933502725e-01
3.123551512392075402e-01
1.425830363990187588e-01
5.839575079119383449e-01
8.393113411534433022e-01
5.240723694727660309e-01
5.393789200002059303e-01
2.499424574669190657e-01
4.280877527300179786e-01
4.699648013285541714e-01
3.085445982571038415e-01
3.137231248472355238e-01
4.150238289669793135e-01
5.606024744669195758e-01
1.604710803426720178e-01
3.728803855513919685e-01
2.567495690956752008e-01
4.616323974322167900e-01
1.000000000000000000e+00
5.273450782860147346e-01
4.429355260151889295e-01
1.278798081348599958e-01
1.832435325124795455e-01
3.116373608386024951e-01
4.971978304946698124e-01
5.325503837483031022e-01
3.825292972356337251e-01
4.233506483527086917e-01
2.563121949118401521e-01
3.975013517051810830e-01
2.602745550352792980e-01
1.766868052396289857e-01
3.357052920501980564e-01
4.792071135062875298e-01
3.163412032687073494e-01
1.751199780621145174e-01
6.949377536320462678e-02
1.718059786240065945e-01
4.282828299003113570e-01
2.908115507501454200e-01
3.925836190578570473e-01
8.935203018918515261e-02
2.332364353668436308e-01
6.663605015756771666e-01
3.434194462223302824e-01
9.469101109077329159e-01
4.008564193034637180e-01
6.723513902114900409e-01
5.560565342342259632e-01
6.785473987417277308e-02
6.992473952569793205e-01
4.344107620347402721e-01
4.289856286533568208e-01
1.296576522874691995e-01
2.895525592435078677e-01
3.470186319920253171e-01
4.779269275777593973e-01
5.532502573937391199e-01
7.734516015374229836e-01
1.258883375098351076e-01
3.348821482158388374e-01
1.793507183005449979e-01
7.695925960141882793e-01
4.334367166916417990e-01
6.112737292667980160e-01
5.310824419885552539e-01
6.760320801320406359e-01
5.511221859056128491e-02
5.384710436529855926e-01
8.151573214557076286e-01
2.416431930644880322e-01
2.739208759626134970e-01
4.678336773281911443e-01
7.933611083575928813e-01
5.503161960874279890e-01
6.387562128321695454e-01
1.514564704387867389e-01
5.655993879843487226e-01
5.580648682001405625e-01
5.909064109233445050e-01
1.829137474755422876e-01
3.679428232663408682e-01
7.777477554814662408e-01
5.334234025261135326e-01
5.289299801043823024e-01
2.592460050036884955e-01
3.423439189112590375e-01
4.583892223516013442e-01
5.979738586343467110e-01
9.801292749063231224e-02
3.773891887639815867e-01
6.569502993232592125e-01
9.745625904534321871e-02
8.373306834319111935e-01
2.939793967060906899e-01
4.137766917773632591e-01
6.929983266385617013e-02
3.319471503459479611e-01
9.428168289530454438e-02
1.519214525230077051e-01
6.474319886134030644e-02
4.621357139376806034e-01
2.351685532092373798e-01
7.247008318821996919e-01
3.305345729611822714e-01
2.509637501197742870e-01
3.641416058077562301e-01
5.841963593095669260e-01
4.358238181169596381e-01
4.107041820211543848e-01
5.519145202213394663e-01
3.127155701220127870e-01
4.384417075557817678e-01
1.511655964995778367e-01
3.745538612479435425e-01
8.287320390428759564e-01
4.823074025375650997e-01
1.784025876836874969e-01
5.842490395324257957e-01
2.121919211873727618e-01
6.493865547342391187e-01
1.314188841531656604e-01
4.905996295631520621e-01
4.026439901235627228e-01
2.428909617932900056e-01
5.185507955046589901e-01
2.601328161741092715e-01
5.123684477470017429e-01
3.326226763543193021e-01
3.477931947185085026e-01
3.189571550052844318e-01
4.395005661598566093e-01
1.086302205568513007e-01
9.824808870483969780e-02
4.170740862629416235e-01
1.406189279407402404e-01
4.493920938726505554e-01
3.888252094699029549e-01
5.424251029034201643e-01
1.276986958670800199e-01
8.620483434445007365e-02
8.945447944259348194e-01
5.916981823595250933e-01
4.231238138249734382e-01
1.440967137142517285e-01
7.736260178171318058e-01
6.390833254788665929e-01
6.883798043339108830e-01
3.663692325592766696e-01
6.333959129687517509e-01
2.710596636915051927e-01
2.363738090376146517e-01
1.736821818631208991e-01
7.075890878722329580e-02
3.953687793226789982e-01
3.004520080092807355e-01
1.818422441413699298e-01
6.121336077027542677e-01
6.094091698390333711e-01
5.148208376008263087e-01
3.335729169903613456e-01
2.803791986040231610e-01
8.987973597596515818e-01
2.005569787952811989e-01
7.092873128328697208e-01
4.362258097992796069e-01
2.749181885939308012e-01
2.840389354603979344e-01
4.697159278405797500e-01
5.666071202215098301e-01
4.420016384284267685e-01
7.163212237602306631e-01
9.219402361883910491e-02
3.678199745378573082e-01
4.686129410608283474e-01
1.105729675865236988e-01
2.536489751817567750e-01
8.881129313051541740e-02
2.005930098400660888e-01
2.210987833064125829e-01
7.137284065528668453e-01
5.608478750146763669e-01
3.158979255264465213e-01
9.887438055898292721e-02
2.920392693743041890e-01
2.550114526352599276e-01
7.081548884053447956e-01
3.608432712726641900e-01
7.559243696262382128e-01
4.916070829021669808e-01
2.248577816406768237e-01
1.785414518372897830e-01
7.112586803452974893e-01
5.503509318589585586e-01
4.866896972294230128e-01
5.183402522615063734e-01
2.988135728694810700e-01
3.562672824746793143e-01
6.872515533272600952e-02
5.980404531868583895e-01
2.777438032403973800e-01
1.649150298750573507e-01
5.228402271605410156e-01
6.672913087938199261e-01
8.344617360888427482e-02
3.051130255411461656e-01
4.579662176674935692e-01
1.719520479362722509e-01
4.797258616252680352e-01
3.611229951016502460e-01
3.282886260652573274e-01
2.897450313402529232e-01
5.711914153439401343e-01
3.613752781923597057e-01
5.312584582162741542e-01
4.953654829798873616e-01
4.791499693839797458e-01
6.503608487540349925e-01
2.509447381691702894e-01
3.183618145420935019e-01
7.877307046533966739e-01
1.785148496013313213e-01
3.342106077730902514e-01
2.078700409723022169e-01
7.758809679932761327e-02
3.691903244150900321e-01
3.139262133981480796e-01
1.580492070055815046e-01
6.634535289370770972e-01
2.884150226496912661e-01
2.405491351633464447e-01
3.245384479757266183e-01
2.339735441812824113e-01
2.206974901384507470e-01
3.383651815034646737e-01
3.266204903530510739e-01
3.991474276499785145e-01
4.386053891340425115e-01
1.394902200629073719e-01
7.302000990420696169e-01
5.777754027823780447e-01
2.592840215389254910e-01
2.385606553038077671e-01
1.255762610297665727e-01
1.828551588957141871e-01
4.166357350975953278e-01
4.754710788345455352e-01
3.668661205347610310e-01
5.480376861172606695e-01
4.335942362358302105e-01
3.494371864604364220e-01
1.440787566971145350e-01
1.942795573718971713e-01
2.984137726459180628e-01
2.317298087346630620e-01
3.243022262122338684e-01
4.191651810273686052e-01
4.070312017394295268e-01
2.700815972194765546e-01
9.875336926648012326e-02
5.093936650743459138e-01
1.110353816332041582e-01
3.843448192877323422e-01
2.530745368915973681e-01
2.416651603302103213e-01
3.622217825595874796e-01
4.560998293105922863e-01
2.637495905154657039e-01
1.680653954546848794e-01
3.503373758826630047e-01
6.326195370873481938e-01
4.757035291962045109e-01
4.427306380756075299e-01
3.516181306994260458e-01
3.442579625685591727e-01
2.329352769192481465e-01
3.241249654646242706e-01
4.471356806569562470e-01
6.086522212822924605e-01
2.846517322340411660e-01
2.088859323617819064e-01
5.223703940605243234e-01
2.787865960698409085e-01
5.366169640752709302e-01
3.809182874909982641e-01
4.016285160611809402e-01
2.829345707070241023e-01
4.487278117437559777e-01
3.890607748986444903e-01
1.005190653192192390e-01
3.105053873261435782e-01
3.976536674508106550e-01
4.852106865081066700e-01
3.939595439126616916e-01
1.530866513646678695e-01
1.779516626594868367e-01
5.829806602719466158e-01
2.866048264152534775e-01
2.266009140858742804e-02
5.569691189524702546e-01
3.732437351684570470e-01
1.729494292169189429e-01
3.324886900014381030e-01
5.626538365583714230e-01
2.936943638032281645e-01
3.040229895256315040e-01
8.341226089459090332e-02
1.549518237649360752e-01
1.793210701787421035e-01
7.512605119158016764e-02
1.043648683014603978e-01
5.897020252592534428e-02
1.168710254717221508e-01
2.697183571159914028e-01
3.066424268591791957e-01
1.921789775289771129e-01
1.254484513631357046e-01
1.488784704448647134e-01
4.011822551797909475e-01
3.228424518819789091e-01
2.481573561391661464e-01
2.557413065923137552e-01
2.069903975107102445e-01
3.532161530538138194e-01
4.024575342375087961e-01
2.200119792689971820e-01
2.224349313104144743e-01
6.492988718267284076e-02
2.991180275487009266e-01
2.857433272348793851e-01
3.262898261856868043e-01
3.239565823149178625e-01
1.853962595590475659e-01
8.275847830407760675e-02
2.862629814021599439e-01
2.255923907198283118e-01
1.867258335258061008e-01
3.371547830312220800e-02
2.363651647976019732e-01
3.136255102929448868e-01
2.564715160976867581e-01
1.288461479726266956e-01
2.997027281468110926e-01
4.339893344319024071e-01
2.562851225231352892e-01
2.457110668706244117e-01
4.309139901112316040e-01
3.093598558010028921e-01
6.303112773374999755e-02
1.950015273166174345e-01
1.091949529344884984e-01
7.775920520807180769e-02
3.739529400630565159e-01
3.431764925123078486e-02
5.216643336295526678e-01
1.483346644621624799e-01
1.207167742872641003e-01
3.478276661550320226e-01
5.415634885291854550e-01
5.235123649621007402e-01
6.976368051325176900e-02
4.996663340292032962e-01
3.821794983260343725e-01
3.578112739253581087e-01
2.369243209413646467e-01
8.837592783184036738e-02
2.480171554195263195e-01
1.194755734253434010e-01
6.374726465579248769e-02
1.280984739472095235e-01
9.768858472276335803e-02
1.726261287850040793e-01
1.192374989395170032e-01
1.540167579711393953e-01
1.418124146195617052e-01
2.310215115953354326e-01
1.179174580971198566e-01
1.999674149834326786e-01
1.138024879498111541e-01
3.068851551521650234e-01
5.843706848286472216e-02
1.173644455092112959e-01
8.830576934378096821e-02
9.315007413198998776e-02
1.121101578627362871e-01
5.614593636351609962e-02
3.274333174119758438e-01
2.864180073820603578e-01
4.173879541338956778e-02
6.631263873555018340e-02
1.521670391391890809e-01
1.882987496017342888e-01
2.379196278568740108e-01
1.107931724669081741e-01
2.441442389148395786e-01
3.917162385943471770e-01
1.582498054460633186e-01
1.522122162191710815e-01
3.945976288736820492e-01
2.105520441885706528e-01
1.218031687244409966e-01
2.935350192631455690e-01
3.817527100755498393e-01
5.005269462934729824e-02
1.209228264818079240e-01
1.446936910216818362e-01
9.132987532778406858e-02
1.925330108749045421e-01
1.319397210537250620e-01
5.110064446176808967e-02
2.105110675000998743e-01
3.770572096928894723e-01
3.095249651137388924e-01
8.031845808185163194e-02
2.956609515864219162e-01
4.766087314472932518e-02
6.315376131457570152e-02
2.083877731001007039e-01
1.418315276650222168e-01
8.370654149714633341e-02
1.047947107403536665e-01
2.123975956273480292e-01
2.079629808226553245e-01
1.016342993133105416e-01
9.249726619058697141e-02
1.277681702844934430e-01
1.248958999779572060e-01
1.188646740359189380e-01
1.287137163619863356e-01
1.131908807705579445e-01
2.337188080255257761e-01
3.678715204870282585e-01
8.755442880673677819e-02
2.014610559464723172e-01
2.482789943231847041e-01
1.823843573079984293e-01
2.791426587823870875e-01
2.248827858191693174e-02
1.901818199751983685e-01
2.852912458104671645e-01
1.197832791699239841e-01
9.590937368256961804e-02
8.021344318232280501e-02
1.813610178190284417e-01
6.052174263096218171e-02
2.466070772558845992e-01
2.034631504041477801e-01
3.600206519659860938e-01
1.271560241966860350e-01
1.308129147364664735e-01
7.640535718124184805e-02
1.574421973463081825e-01
1.941957424128490928e-01
1.062493220431750263e-01
2.590040414850112160e-01
2.034377225551489698e-01
1.106957159819492165e-01
2.422630570890246249e-01
2.591473672927095406e-01
1.220558995169872679e-01
5.715016319810541090e-02
1.152026991704130227e-01
1.210601152290981947e-01
1.545764054657589592e-01
2.308110424460757537e-01
8.350117303143796132e-02
9.025246539067775797e-02
8.418145427554458993e-02
1.161481883987620645e-01
1.177374533553771502e-01
9.534726296525150580e-02
9.005968163000428739e-02
2.256898932306413141e-01
7.669097322843067277e-02
1.237503479636698905e-01
5.252836948588107679e-02
3.729024742157840879e-03
7.303730227057779467e-02
3.174854780703741108e-02
1.042608369173485816e-01
1.108968206642938215e-01
3.736263111147256066e-02
1.235473915863594951e-01
1.893359121577587456e-01
1.328642716194179119e-01
8.837913700304433906e-02
5.574639827366962425e-02
1.685417699536792546e-01
1.562296702028440065e-01
1.857811315372580319e-01
1.082163957286358946e-01
1.593614039566910723e-01
1.530964597000109007e-01
1.091178153105313298e-01
1.504387612811208808e-01
1.680228396769198052e-01
5.691266525298532830e-02
1.076307452729075992e-01
1.412115557755434792e-01
6.267094653455321240e-02
1.091965567805737967e-02
1.297458847796543191e-01
1.414223386119485004e-01
9.221089769227125421e-02
1.573119609445945144e-01
1.613434558301850980e-02
1.170389268228633345e-01
1.225001568806283053e-01
6.906017986590200219e-02
9.532447552753205156e-02
1.846329536206199606e-02
5.268400007933631696e-02
1.213447498701054200e-02
8.268786622107132667e-02
1.486943953190114909e-01
1.544904551743464527e-01
1.936508878858660687e-01
1.129981108564022119e-01
1.341813565587086921e-01
6.018539495944285472e-02
1.751537366975456159e-02
1.157656244439994042e-01
2.247853444247713828e-01
8.250112162480147115e-02
6.148575501443276359e-02
5.603668748434369878e-02
5.762584566285421095e-02
9.709968978298900988e-02
1.994960482903933019e-01
1.790900632879623144e-01
8.373958443171508614e-02
8.308387981932056909e-02
8.201840235493591813e-02
4.847788361772521759e-02
7.808804487440977604e-02
1.370034074634823018e-01
1.044376941336365786e-02
1.426290119793309774e-01
2.902918004702944449e-02
4.183302412841501117e-02
8.026247739356552613e-02
1.306850274362660047e-01
1.221942564473533083e-01
1.100348904646748088e-01
4.337061583588005392e-02
1.031607124050712143e-01
1.005663824715591487e-01
4.782058859435400766e-02
1.214384001738995356e-02
1.005373100034168549e-01
2.631614609212034051e-01
1.563267504898064320e-01
2.110464144933141550e-01
4.716970361962800895e-02
7.154164038944699211e-02
1.347824032608371247e-01
9.989309688733681580e-02
1.594979515254764391e-01
1.006111625445477720e-01
7.533355314987756624e-02
6.139791898525268077e-02
1.556809388351936829e-01
5.263827495074584195e-02
6.482712498557383074e-02
2.276325889957418747e-01
1.587352823889459918e-01
5.257608002533172009e-02
1.408262321266437467e-01
2.284009193950790606e-01
8.664171116694839581e-02
4.967153020241349415e-02
1.040901579891776313e-01
8.920025362451078355e-02
7.171243048227368688e-02
2.418114269482856543e-02
8.500074524756398575e-02
2.970983622838718058e-02
3.766113840278484393e-02
1.604345701098901511e-01
1.639056529949376173e-01
9.188993338963576119e-02
7.043240334497322119e-02
9.140762213389624913e-02
1.747114476017422036e-01
1.285382214580327032e-01
9.638061512572750067e-02
8.226462603208725688e-02
8.586138034022806897e-02
6.623072043784709872e-02
8.057998809292826747e-02
5.887204103538590944e-02
9.236093159650700379e-02
9.376331176256483269e-02
1.173378719840409840e-01
1.956906455133813338e-01
3.867266721996258372e-02
1.142996854719650762e-01
3.716678362318814183e-02
8.593662730728401922e-02
1.372637435896177094e-01
1.438940982644338895e-01
1.330584304473482193e-01
1.514649992627804462e-02
5.991606548510913788e-02
6.334162228772512171e-02
1.316480058398347419e-01
2.385019753345230670e-02
8.445692196096483972e-02
7.672584813516654390e-02
4.908083561369853964e-02
7.357359744809219282e-02
8.170924717173570773e-02
1.167792114114799343e-02
1.091345872300879399e-01
5.879337687696126191e-02
1.298419064912061383e-01
1.394914297904741030e-01
8.429911317067810550e-02
6.574805481124383622e-02
1.688082245773403212e-01
2.125153929214285975e-01
1.530372616530538410e-01
3.217799670607165291e-02
6.620821920387985615e-02
3.232943255807033123e-02
1.085960641713307889e-01
3.471326135911583649e-02
9.010970115658488433e-02
5.165301397012138362e-02
9.884297157671698142e-02
1.639968163284104552e-01
1.074955627244403578e-01
7.207225135165520880e-02
8.468352292466090059e-02
1.127982902707820728e-01
1.423838737226194584e-01
1.943045683866297460e-02
3.963853500436736316e-02
1.578123761260995517e-01
1.190273968326714948e-01
6.453675216234194822e-02
8.770790464656477714e-02
1.881689714606477742e-02
9.147926772612710589e-02
1.821534769931167641e-01
5.437534819873132003e-02
6.429653779749329445e-02
8.806253510634982906e-02
1.523888396479402274e-01
7.750911756589383417e-02
1.001696313312748776e-01
5.555131684729393976e-02
9.530942860369487346e-02
1.910527187399192750e-01
2.061728686630215357e-01
1.324609876628038696e-01
5.235831137930731932e-02
1.014916671801740361e-01
1.591409650688307142e-01
7.132955718242968424e-02
1.098433262075908246e-01
1.558788977868860171e-01
9.808590433208919102e-02
7.617034676130521320e-02
9.125969173916878563e-02
6.189410482779155592e-02
2.535169310219997571e-02
2.290742537569607010e-02
1.539282018498099869e-01
4.686903850974302732e-02
4.717793717628082639e-02
9.565237454790158356e-02
5.551048219861324379e-02
8.353491123009414154e-02
9.769027374060400282e-02
7.356958336474916926e-02
8.801249128769637886e-02
1.086094976308123600e-01
2.477960631102047590e-02
2.193924280701855245e-01
1.271279431175791341e-01
8.095257549175564893e-02
5.755952006932553433e-02
8.935085386249135703e-03
8.082697844637654061e-02
3.433613250703598102e-02
1.240068345290599172e-01
1.586907464071632967e-01
4.976479472141445010e-02
2.133404077896761397e-01
1.694824350419761594e-01
1.647113633539282473e-01
5.217864475346622316e-02
1.522506574520741396e-01
4.033369599426066265e-02
1.128851257486480769e-01
1.100059348115787206e-01
1.648928927745559880e-01
1.227997437057438690e-01
9.666891099329984194e-02
1.988022611571096665e-01
2.107420410617870665e-01
3.900519954690848112e-02
1.586600875309683023e-01
1.988441341706741194e-01
1.637163669243778541e-01
1.879387551753727292e-01
4.958892878820118921e-02
2.964202086382328530e-02
1.022076833010303470e-01
6.588544746158273013e-02
1.116236080150721649e-01
8.315719832656376376e-02
7.946494084695872318e-02
8.714634333484075346e-02
7.687129159935002232e-02
1.050170976913129689e-01
9.591664250490969379e-02
1.184997206005064529e-01
7.369429735204452436e-02
1.469691286215804027e-01
7.679563484477783253e-02
6.065361638525062354e-02
9.214574725233845576e-02
4.320321001727675525e-02
4.123891173063379267e-02
9.152142726783116244e-02
3.502889675610906806e-02
6.519502571939662927e-02
1.536704807226168812e-01
4.972045372042719485e-02
4.387414795329480643e-02
6.235651018771547205e-02
5.956589689075301314e-02
4.931715091335399370e-02
1.659978313035258279e-01
7.794348691348766678e-02
5.469117559499855896e-02
1.206685633550261261e-01
4.113750727617636327e-02
6.299196371247739457e-02
7.245431702192685341e-02
1.584469049282694608e-01
7.930001374023677718e-02
7.125230539734091206e-02
1.296763765320071704e-01
1.001967791868994262e-01
2.390771775649735628e-02
8.235552636970402962e-02
1.807206475972689685e-01
7.570345560946888097e-02
7.200281294138646815e-02
8.529483939393334158e-02
1.496148428198889324e-01
1.008838382537837614e-01
4.838626845961552236e-02
1.018991102048258379e-01
7.483135254443824824e-02
3.975993786796375856e-02
6.792127123368986441e-02
8.329905677861455804e-02
1.541157298115674867e-01
1.117470821965708683e-01
4.709211584504557208e-02
1.564895156372426155e-01
1.011337935084168083e-01
1.004439635164640632e-01
5.769255933137904663e-02
9.078931278661420134e-02
2.070825124251376159e-01
1.546555646648281879e-01
1.243438527925291442e-01
8.050886562904036037e-02
1.185758605074372085e-01
1.453114584255300878e-01
9.852772326863114272e-02
2.713254162906361330e-02
9.626313795771676562e-02
1.015621202209519985e-01
6.392017637025454446e-02
8.829946154210684128e-02
1.806871527925681953e-01
2.390539097686626008e-02
1.284874808186427068e-02
9.724753822554468852e-02
1.093182784391811269e-01
5.849721086020653708e-03
7.350942133750909546e-02
1.022959650110317198e-01
5.739467413313748684e-02
2.319333220107278742e-02
1.340229868803073099e-01
1.038335017749051487e-01
3.106942207861069019e-02
1.231910124474999146e-01
1.988342643929109643e-01
1.293656836835293256e-01
7.527429813059344221e-02
4.967868760993097293e-02
1.961548701917774362e-01
2.063506632670294438e-01
1.524697035147306035e-01
1.536016908471338482e-01
2.654766960018528632e-02
1.459494690984017851e-01
3.006829450107397217e-01
1.451145163192388010e-01
5.731007850411477117e-02
6.269699043855042619e-02
7.830343090413402485e-02
1.569830612993516894e-01
6.506498758028030072e-02
3.704364986222389439e-02
3.970319866892280114e-02
1.091379003417033422e-01
1.272986600159236870e-01
1.236064526034976185e-01
1.250626028254819555e-01
8.587476186232216591e-02
4.568795143244099716e-02
6.850586855848377066e-02
7.038179260931270997e-02
1.100314510870305379e-01
1.013982548746172746e-01
8.385571844546478582e-02
7.279936520205149142e-02
1.430811235754911592e-01
8.691783220148080469e-02
9.825164417994424609e-03
2.314049747758073483e-01
1.642489601639381402e-01
1.504725770525155437e-01
4.875552564653545806e-02
5.737717596850362700e-02
7.870820446074911977e-03
1.245073240654248348e-01
4.098594541982500394e-02
8.532299526536790690e-02
9.949314800507368106e-02
2.073963179538726720e-01
1.791111173727591710e-01
3.880915839343207496e-02
1.045574679899820836e-01
1.338288475028263369e-01
8.273922363912947220e-02
1.689896567484047984e-01
7.466091189846779663e-02
1.668237275643574546e-01
1.278394718672619113e-01
8.292426591635468358e-02
3.990469897139259370e-02
6.413458060800113214e-02
7.101083346553574427e-02
4.819915123090782322e-02
2.097903145740074790e-02
4.921852405784230694e-02
5.096048519020725948e-02
1.370693402263229409e-02
6.568547246322521682e-02
5.858589578841257722e-02
1.099263366261603175e-01
1.029610461535587634e-01
1.007206749388441513e-01
9.486730321328101789e-02
1.208331782675547278e-01
1.366842237742909583e-01
3.961748076530356016e-02
7.194284348443499844e-02
3.623007036274583648e-02
8.168064976801840682e-02
2.956826058117593276e-02
8.431203073479118237e-02
7.572095135161195645e-02
2.885581993382447044e-02
6.903723312297235792e-02
8.713475419154564916e-02
1.135058051956373132e-01
1.431657845437057930e-02
4.579335415648370239e-02
1.807591612855490859e-01
1.084099487788228872e-01
1.083706780319648316e-01
4.316892253744752939e-02
1.122263763607180345e-02
1.421412132055210331e-01
1.839994226921218001e-01
7.124439494866673106e-02
3.773911444383117042e-02
1.540281154053274593e-01
7.030195193054221414e-02
1.962450080579173847e-02
7.869214600473364851e-02
1.222709628690344941e-01
1.965777835608658042e-01
1.174198294396723574e-01
8.886066402114181986e-03
5.330115036134657619e-02
8.248974975971921919e-02
1.639224728388616881e-01
1.309791923188170781e-02
7.749677481725757155e-02
1.379585304647884536e-01
5.240793446988770143e-02
1.021457800770454172e-01
1.190175316895261542e-01
1.285320987633440104e-01
1.106876540467787995e-01
4.529403151702808550e-02
1.664130526216612074e-02
4.562459786559495273e-02
1.508282335591890622e-01
1.729620061513864326e-01
5.190003418640951049e-02
2.652442251486746352e-02
8.513686532012504360e-02
1.319175902719516569e-01
5.984272340313686461e-02
3.844865933023189353e-02
9.781249201698749562e-02
1.031552679989078541e-01
1.069765759971111896e-01
8.879014831987408485e-02
8.295035846221056330e-02
1.773304499584277827e-01
9.624919634331602358e-02
9.346416349405169133e-02
1.283185986940256762e-01
1.191889301330159578e-01
4.910152179128829397e-02
3.778499358629577864e-02
3.067584046177802837e-02
4.095080254967086580e-02
1.425849942951986846e-02
5.002923948204849453e-02
1.178429154520278799e-01
1.267933966494282916e-01
1.934842360487916690e-01
1.256557461683979193e-01
7.838146556155153877e-02
1.235707130917074043e-01
4.885025115065499274e-02
4.993597080349845146e-02
9.060374326680765977e-02
2.089991769775971162e-02
7.718063104308114930e-02
5.999471969485005440e-02
3.702338609827634380e-02
6.491139103281913514e-02
1.209506766601490813e-01
1.428837913786169637e-02
1.047915640582100238e-01
1.149888000498180129e-01
8.386754334235961561e-02
7.003732956884080318e-02
6.783810101120053837e-02
6.281083285330286980e-02
5.256666392463230780e-02
1.047509072862593156e-02
1.252634485079514304e-01
1.092569321005279620e-01
4.961249088252714379e-02
7.012426220713977032e-02
9.551207241185914742e-02
1.228513648523124474e-01
3.660695557175259324e-02
4.183337160710779573e-02
9.867337780604225686e-03
4.817440885520799659e-02
4.752495497495812932e-02
1.088566160129292026e-01
6.761197209231650795e-02
1.071171635286040646e-01
7.819575786944395202e-02
2.913282736419324503e-02
3.121274110976896693e-02
9.508870686096040914e-02
3.642290503594433626e-02
1.528490326633138822e-02
1.837425292170077537e-02
1.290325555205188747e-02
1.837436315903890130e-02
3.089089281454962879e-02
6.115392260603398633e-02
6.619017182423243828e-02
9.911303924472091020e-02
4.431683275926544957e-02
7.783833509229877434e-02
5.241310526458666658e-02
6.640107517107771140e-02
1.219118176617426386e-01
6.493985973538951573e-02
8.435596557582544786e-02
6.216220017665746028e-02
3.245787699596860976e-02
1.652950591520166782e-02
1.089657158431687756e-01
4.213322750459110033e-02
1.635743726288634708e-02
1.014030663930680642e-01
9.834175883765836068e-02
1.502106322812133410e-01
9.500071248487727826e-02
5.014318355687302081e-02
1.111728333338352429e-02
1.004624107154801632e-01
7.739480771767980050e-02
3.000060411625836768e-02
7.299436086831014026e-03
6.268393913181163901e-02
5.761975162988003385e-02
2.395706829064378832e-02
4.357115661474752349e-02
6.779523382751806784e-03
6.975225152142144891e-02
7.271256828036169739e-02
8.520387552665302511e-02
3.370756230041225404e-02
7.129427423221376681e-02
4.487993263585673270e-02
1.270915996562818097e-02
4.993798981404877491e-02
4.229818074847566806e-02
5.498467897159282913e-02
9.116538142252453292e-02
6.102693888354741858e-02
4.465548529180703163e-02
3.888531412551961275e-02
5.995167043590768352e-02
5.407350534446176554e-02
5.851212805090966890e-02
1.345812524712222125e-01
1.410536364143787635e-01
1.068101431016329483e-01
3.314707412076216969e-02
1.494746373905771371e-02
2.482044915915536734e-02
1.733022777108625054e-02
4.969049736095375314e-02
1.052881850177997819e-01
2.863704477456379890e-02
5.251317197497870626e-02
5.197180574446721990e-02
3.861396338097041608e-02
6.710491503522439394e-02
2.127614848815437276e-02
5.012732672777672760e-02
6.639924238319387662e-02
2.924271588933941013e-02
1.948296727542859911e-03
4.938136309992815359e-02
3.846784710557372283e-02
4.998067189286668766e-02
3.805537955098121233e-02
2.153806163771545754e-02
2.316462296488439043e-02
5.294183485530244530e-03
4.647970226220820428e-02
6.622548857143630008e-02
2.388913191221659141e-02
4.467113187726829554e-02
3.806388903584152078e-02
6.111816862790853816e-02
5.226465580805663563e-02
8.624257456368132624e-02
4.478463503970770559e-02
6.400018952638675263e-02
3.487886346155785050e-02
8.026238710993503778e-02
4.520436245277244941e-02
3.940267567564794543e-02
5.889892336758175556e-02
3.726889124187070940e-02
1.641172297642304670e-02
6.007840263243287987e-02
3.887899217108874150e-02
1.999127318030028203e-02
5.576335648481014345e-02
7.191022144322668785e-02
7.795566243220317104e-02
1.572973495432087795e-02
7.536492528067115226e-02
7.844384164042114693e-02
8.210111512603081307e-02
3.558853088397066766e-02
3.651137859618160120e-02
3.479635471391155643e-02
6.787722074813941353e-02
3.903228796023635455e-02
5.643699222910916746e-02
3.331988412378746045e-02
7.072389710540354091e-02
3.410415207145401500e-02
5.503544297314565126e-02
4.605096860494237859e-02
2.982221744476789768e-02
5.328813992488930229e-02
3.297667485756525935e-02
5.831406701729009018e-02
6.153923746665324740e-02
2.698651133988372655e-02
4.318291696016806486e-02
3.475963569654378499e-02
5.729043020851223855e-02
6.233011044275939966e-02
1.870936991601758470e-02
2.449920837145081604e-02
2.952123488129272319e-02
3.567576052747058885e-02
6.561248718444893935e-02
5.020368614788574269e-02
3.173851141566125938e-02
6.010755697883125859e-02
3.070917925671665799e-02
1.273127255099295793e-02
5.393676148292553263e-02
7.458822514918900422e-03
4.059093221090740583e-02
9.734109509138760136e-03
8.598737249353746726e-02
6.174072163366061544e-02
2.099449578799722493e-02
6.848277105483745186e-02
6.575505356614189112e-02
5.801752218024103236e-02
7.997615682205937160e-02
1.409181005058591889e-02
1.712077883905822537e-02
9.066518657821180313e-03
5.977792101798031638e-02
7.203038171036812987e-02
4.388669446875564928e-02
6.490571588285427851e-02
8.631573296266502326e-02
6.479396983365538765e-02
6.854510025154654518e-02
3.408407317857863744e-02
5.946164948280144823e-03
6.132087922969352289e-02
6.287411895116923333e-02
8.188720608464331030e-03
2.206287219022465967e-02
7.958943746508975736e-02
3.222190114285636980e-02
3.678838651321943154e-02
6.886798781488015497e-02
4.272665505916167089e-02
3.829535171501340096e-02
4.017511306052668624e-02
1.446663584627751187e-02
6.327834952958406867e-02
5.401114683210214013e-02
3.872338475212706854e-02
2.724183010764874568e-02
4.233650439594122822e-02
2.498992806174445483e-02
2.870285917260887582e-02
1.159989729777969464e-02
1.290501582937834957e-02
3.870799785726771608e-02
5.483302167179705117e-02
1.312192573528708772e-02
2.592661372728369273e-02
1.502703150557908873e-02
3.650743164099298083e-02
4.582499219580147415e-02
4.037539750860093257e-02
3.561513497373733350e-02
4.968664688531327506e-02
5.472342859223625761e-02
4.398988720723944618e-02
1.874718976080594693e-02
1.252202496911897743e-02
4.306576431371716973e-02
1.601002223955601614e-02
6.755421418064783134e-02
4.653730420818948110e-02
5.005727283377822689e-02
2.749691122583308375e-02
1.744556494536560545e-02
1.942941374239565144e-02
5.480439664891130491e-02
1.078381402752198910e-02
3.845919566565325631e-02
2.639779928137345882e-02
5.396680895666274014e-02
4.159207923745043833e-02
4.847483381881655118e-02
3.876500771684699559e-02
1.742416433026908879e-02
7.411724843698937193e-02
3.831534854280121277e-02
2.684847964196012543e-02
3.146408288724619057e-02
4.993369343253542536e-02
4.057831415425662558e-02
1.538558307667950431e-02
1.860897280187102931e-02
2.477183274587799189e-02
1.268288913618893267e-02
1.493210183470712257e-02
2.680929188923846657e-02
3.695573577180878699e-02
4.545484477399117790e-02
3.015930407043995731e-02
6.366356291696491365e-02
4.996872063398107022e-02
4.716042621339280178e-02
3.585290650843209886e-02
4.151651897234895361e-02
4.060029181367480478e-02
6.321282458141297411e-02
3.802148621698167585e-02
2.520465353590818289e-02
4.420202844758705507e-02
7.378329825835577838e-02
5.756967968827753773e-02
6.028511148125702962e-02
4.850086543410449258e-02
2.390143157401988794e-02
9.620165296829501916e-03
3.266804243716679712e-02
4.524376092401825172e-02
2.449945704945223623e-02
1.854688321282654470e-02
8.523513062775262342e-03
6.649419630249572832e-02
3.801482806811001813e-02
2.906231357569326670e-02
3.445763544475477502e-02
1.116011194788418467e-02
1.730292122015522627e-02
3.945643051763419312e-02
3.874651458769049622e-02
5.219297392713184019e-02
4.685478235885928711e-02
1.866796767189865883e-02
4.139631915326557471e-02
3.305273640629157600e-02
3.876521205070859732e-02
4.565199414287678809e-02
4.746946024411339421e-02
3.680871476394940306e-02
3.554550396044224569e-02
3.269453213672931374e-02
1.296317304385842528e-02
2.803753337302972506e-02
4.763915699275592802e-02
7.912337409349928796e-02
1.127932493642200829e-01
6.192012620079742624e-02
1.005790806232826490e-02
4.618978077018986300e-02
3.174156363360770838e-02
3.505733032471846505e-02
4.126704787209423825e-02
3.055884281869471544e-02
4.909934716986788517e-02
4.079751344267108087e-02
3.087498849290768246e-02
2.565811773292967293e-02
2.328597920263197549e-02
5.224410910587713036e-02
2.164119187597210101e-02
4.952547540338490123e-02
1.019686685343048661e-02
3.506463939064723839e-02
5.909537102270218806e-02
6.128651811745695899e-02
4.028918207043464400e-02
3.116949512775792769e-02
3.226482665704179242e-02
1.135166035862950409e-02
3.393804529940759596e-02
5.603483325293075884e-02
7.130505386215115100e-03
3.226130149983394424e-02
2.962142741245515562e-02
8.279206782240767712e-03
2.633143081975656413e-02
2.767115968193911701e-02
1.527639337977407079e-02
4.487583400227523195e-02
9.254750126598165066e-03
1.235244574256302505e-02
2.281529269777696212e-02
5.882779014890963248e-02
5.574546682751428672e-02
4.135479327236210589e-02
4.301724009668761450e-02
2.220162629405434546e-02
1.600184776631192671e-02
6.379181464122156420e-02
1.094523657749722420e-02
1.931291538235355501e-02
2.629091347819359145e-02
2.384721034593847988e-02
4.275672545365212518e-02
4.513917451089305422e-02
4.314563596067494400e-03
1.833724125466743363e-02
5.501062527944723668e-02
2.356713287343526267e-02
3.528516890501545711e-02
2.806034908571437142e-02
2.743715826800029178e-02
2.027838489827986715e-02
1.242358723665651192e-02
1.823185275271422753e-02
2.593660114443265691e-02
2.577515339263793809e-02
6.016613591649907361e-02
6.352663981872262722e-02
2.458697051058923028e-02
1.396804822993026780e-02
4.941714750475823675e-02
3.224453916796479053e-02
5.545624216465911555e-02
2.208782599655335910e-02
5.129612240446757010e-02
5.203012503191470350e-02
5.047529613493961093e-02
5.527274781184361545e-03
2.689932454226132835e-02
2.680983247594292962e-02
3.678860347438727557e-02
5.617142119550468105e-02
5.796972768595703984e-02
1.959497502132971983e-02
2.602088998337270809e-02
2.802153837416407681e-02
6.076181208330329493e-03
4.034841080429199534e-02
8.684427587784804975e-03
3.528454801169386701e-02
3.020412542776756623e-02
5.075534026126930082e-02
4.417815319567522381e-02
5.114348758260502809e-02
6.122007450910417481e-02
2.958883878878046381e-02
1.942219292084573778e-02
2.395967652634074102e-02
1.946235022861032837e-02
3.329817504737116185e-02
2.060033555427246213e-02
2.019933194074689103e-02
3.271097608891460756e-02
4.967559493986811042e-02
3.768609255178299866e-02
3.277014835078501109e-02
3.964852406653539968e-02
2.039009730569733489e-02
3.230392966601864507e-02
2.716535010038006667e-02
3.051035461930937803e-02
3.528867919532222702e-02
4.381669040740036880e-02
3.164921264688667912e-02
1.838069635689331890e-02
1.919164149759798252e-02
3.223327384044064048e-02
3.919157552854560245e-02
7.309365127586042732e-02
1.730578783513583158e-02
6.371736940512889857e-02
5.574905438878183239e-02
8.088126229849093574e-02
4.062628867253978426e-02
1.178773892280013912e-02
3.407333040541551256e-02
9.556172262601686854e-03
4.825202516787741730e-02
1.244736570646891825e-02
1.183812355341619209e-02
2.423069582588656401e-02
2.667883370600382734e-02
4.734591960974077890e-02
4.125064376168290081e-02
1.813037615948887363e-02
3.051909271135591281e-02
2.996549830392489580e-02
5.018040682421869708e-02
3.755614816708306714e-02
2.858024729752460177e-02
5.038939359901417614e-02
8.144563051609679527e-02
5.806776531140807329e-02
6.272939188194864846e-02
4.172662580906978669e-02
1.412939289653689957e-02
8.351152791749572729e-03
1.065774815447158297e-02
1.797290156877361794e-02
2.321609502946853087e-02
1.844496850301483373e-02
3.095389567040370341e-02
4.683858271905041830e-03
5.992397122831694817e-02
1.607233754111671992e-02
3.918151370553280000e-02
1.603973385885633374e-02
2.396787334417357224e-02
3.282329742814833057e-02
3.735075551734089172e-02
5.657818850253140686e-02
4.496191782232584339e-02
3.497431537444396082e-02
1.523100374392446880e-02
3.133203263955785384e-02
6.934642056993572598e-03
1.604435235796284817e-02
2.308388639824297817e-02
3.071835159299635826e-02
1.347787239405782989e-02
2.659734522301603413e-02
6.536949417372715787e-02
1.388804046501204877e-02
3.105494890461525659e-02
2.912810955501262539e-02
4.246782487483191648e-02
5.042251575779459899e-02
4.440813836911403079e-02
1.905496094878639246e-02
3.103158448531938285e-02
2.131036181340991570e-02
1.022552800570913564e-02
2.071964473319280395e-02
9.541482241388737559e-03
3.544198294105146974e-02
3.242398429645921426e-02
4.539558155364609160e-02
3.167884934688523085e-02
1.355191095273304558e-02
5.905171154130302996e-02
3.083566910598966107e-02
1.273705324524629888e-02
1.381792315037121306e-02
1.439167298074076236e-02
2.159473787801177366e-02
6.060719948217269809e-02
4.031342716672883797e-02
3.271456948527328573e-02
4.248461718991312225e-02
2.588396341533895015e-02
1.977198964899039638e-02
1.462926767936593465e-02
1.304136471395721253e-02
2.964714180038102720e-02
4.647436970707569115e-02
6.823653512024464851e-02
5.350973993881037727e-02
3.106090681901651704e-02
9.267731353211731971e-03
2.122579758794879493e-02
2.781112736805619462e-02
3.636976080276763806e-02
4.260502212792762616e-02
3.325273850456552521e-02
5.534393271569047063e-02
5.418844542576424506e-02
4.980841222070592905e-02
4.279321795426099806e-02
3.149082429443866848e-02
1.370774131350655997e-02
1.376016858675662563e-02
3.265447896155257088e-03
1.099247425288936084e-02
5.759899545796486053e-02
1.863826764671632635e-02
9.995485732383254870e-03
1.486380954620595760e-02
6.805120964497157060e-03
1.031887349695581255e-02
2.911055903042518780e-02
2.297802612638077946e-02
5.619343836181426438e-02
5.687013634314161403e-02
1.098385826966635434e-02
2.162733610947051646e-02
8.881049551446137252e-03
2.137401718889114094e-02
3.041288882464274548e-02
4.981878816967442308e-02
3.916202901835028061e-02
3.588397930717061174e-02
4.642716737738209615e-02
3.206662996400678339e-02
1.860204918187726569e-02
1.435333438836269198e-03
9.553857871488314474e-03
2.769517290409998986e-02
9.231058588863779238e-03
1.714880846963120348e-02
5.857148367541661210e-02
1.916127434385562350e-02
2.425497908515773446e-02
2.699343289138771834e-02
1.489652451869754625e-02
1.182692897073269432e-02
2.292520819968031642e-02
9.875939285345127980e-03
4.645509223346537542e-02
1.909177913727189146e-02
4.773481185700782781e-02
9.092304373705090148e-03
8.779151429503142048e-03
1.623574350757657145e-02
1.847608079939027162e-02
2.822733244927842430e-02
3.293295526463581313e-02
4.498760042974517259e-02
3.876992125463518679e-02
1.006669985754218323e-02
2.307943908735930402e-02
2.219857566735301130e-02
1.869886581766557615e-02
5.243526479334945783e-02
4.516185457832601335e-02
3.305917493872883445e-02
4.999762859504484902e-02
5.204024953321668978e-02
1.392102197768301311e-02
7.650223494264841995e-03
2.351586098005255948e-02
4.112534921077939248e-02
4.784825436792758402e-02
4.775609866160633599e-02
4.178755285689930016e-02
4.180861086535440918e-02
4.665975156826387277e-02
2.770991580736258120e-02
5.033621178728261286e-02
1.964010900881099295e-02
1.183618588846538713e-02
1.430566627055846959e-02
3.433339906111102652e-02
2.841494399377378355e-02
4.252409922982604978e-02
1.592887100890285484e-02
3.719495853989363693e-02
3.195424804595245472e-02
2.348438473660923939e-02
4.692779154646766100e-03
2.398398860934815996e-02
4.346046766031871206e-02
3.888143032559219364e-02
5.489416796710214728e-03
3.703063769122692805e-02
8.852292364094623695e-03
2.072349783020327116e-02
1.220301015281327617e-02
3.130826623007738896e-03
1.751645871302943622e-02
4.185239726585186434e-03
2.377926186502700434e-02
2.770858018520291552e-02
3.558841880678639824e-02
3.494762775755637374e-02
3.171322706801829594e-02
2.988037871452132316e-02
2.912815552574530079e-02
3.698312675832579176e-03
1.598696962478080019e-03
4.134367605469914386e-02
3.337426133616075430e-02
2.061208437013834285e-02
2.424589338134307270e-02
2.334749101287040066e-02
1.035117636674861771e-02
2.200038121032227290e-02
4.970837366493274789e-02
6.170795316994866220e-02
5.142053119797740379e-02
1.307865000114381837e-02
5.987882524691078706e-02
3.588170555319389332e-02
6.856345376888776065e-03
1.008405413313983624e-02
3.865340374778141602e-02
5.918286644229448640e-02
1.682826987553525180e-02
4.553802891190485147e-02
2.884587804089949054e-02
5.779996231028292769e-02
4.864311690143697381e-02
1.313275697921929309e-02
3.857399838992893459e-02
1.523950664154751118e-02
2.307554477529444661e-02
1.980435570535094697e-02
3.467435144727608332e-02
8.282375624707244074e-03
6.761814208762839673e-02
3.824213296087670966e-02
1.612451790893230930e-02
3.994032256357568644e-02
5.502078733828616453e-03
3.410590867329970494e-02
3.931591798507216157e-02
2.157912513301917662e-02
1.419523340259965308e-02
2.538249643576192746e-02
2.854807396272562164e-02
2.527580568377953488e-02
1.513686733654386746e-02
2.953233360287583348e-02
2.931412535089190224e-02
2.701511523943820464e-02
2.612326965909956417e-02
5.000371397657873973e-02
3.536893328873111364e-02
1.294867981365548960e-02
4.497663109489385275e-02
2.506354871149731392e-02
2.448087582195059703e-02
1.613638262570049955e-02
1.906052637829096577e-02
3.964459658680759974e-02
2.497107891152987660e-02
4.158992831006178698e-02
3.129452516721931143e-02
5.708028262646340500e-02
3.243868104926050239e-02
3.392707177847068684e-02
4.415122957969641604e-02
3.173660906991916664e-02
3.689555457065323701e-02
1.300593400729090077e-02
3.541167541872199814e-02
5.316066819943655875e-02
3.837372157606656203e-02
9.512803217228046546e-03
2.835083352975422202e-02
3.053373878706458142e-02
2.206845937009956418e-02
1.558980336082207117e-02
3.799685610265578217e-02
2.486825563766640462e-02
5.011399360671143707e-03
3.335276847039914117e-02
1.927709160449676828e-02
6.918680997638274911e-03
5.564366660021816992e-03
4.051714019357941128e-03
8.817529783728541432e-03
3.847417100530040740e-02
2.525019293314908347e-02
3.203605961384050488e-02
3.542936158735283253e-02
4.572813340452989289e-02
1.244301299720129705e-02
1.296772827987230023e-02
2.275849733651646306e-02
4.250804113670790529e-02
1.405678644788260420e-02
1.610872553401519400e-02
1.913301856488698605e-02
3.188774911584706800e-02
2.886575009452583759e-02
3.169956318719941574e-02
1.317086217390699143e-02
3.360226529492502112e-02
3.870049582783071512e-02
3.294626484681269230e-02
1.559280212415290953e-02
9.444403417844665638e-03
2.661834114238110713e-02
3.818433814980647101e-02
3.038678598079984014e-02
2.637712237267783588e-02
1.159640675530483438e-02
2.493593091301949186e-02
1.033839505201323943e-02
3.690852112941308411e-02
1.250165597939874133e-02
1.508816049833843972e-02
8.336374271911733275e-03
3.251369357770898805e-02
1.464950842923707502e-02
4.307384948230019717e-02
1.759826983203457984e-02
2.692278748557114590e-02
1.003780861428670707e-02
4.298620573093097502e-02
1.354162292388674284e-02
1.835054965570199342e-02
3.377259206702453581e-02
3.957778909139361700e-02
1.090311876856440293e-02
4.437159070359215224e-02
1.322875001890810691e-02
2.583420671083825129e-02
9.272151979411016876e-03
8.251640860796148960e-03
1.560664155133358738e-02
6.110013279824263663e-03
2.116187992446039515e-02
2.078154127137991913e-02
2.798172403979538175e-02
2.074923020638304652e-02
4.099504434019355520e-02
1.332565322530676263e-02
1.576427964465014486e-02
4.445502260964465796e-02
2.473080496762640815e-02
2.439319806658085676e-02
5.885192229581157064e-03
2.590976416470727392e-02
3.688413714117997483e-02
4.949643886755798056e-02
4.818753192224069226e-02
2.358976855259221558e-02
1.307314426571047974e-02
1.479104603398355769e-02
7.178668055032512429e-03
3.011441953099139660e-02
6.875290238632299732e-03
1.679641187882342096e-02
1.197710710883011405e-02
2.396202858271431410e-02
4.443240424478156828e-03
1.418453302472711709e-02
2.239628342187762605e-02
3.759950000537224529e-02
1.913087757848812298e-02
4.020538970874390494e-02
3.339477512765806622e-02
3.287793806196676050e-02
2.590800164060555466e-02
2.139246862847776418e-02
3.780707922705428548e-02
1.466136876556702398e-02
1.721451332533455170e-02
1.337431035274527953e-02
1.382613905209501004e-02
4.255663289471241922e-02
4.702289182226171427e-02
3.791446200762783186e-02
3.279462806166869027e-02
1.945583203231751254e-02
1.747154622808321650e-02
1.561861086804927808e-02
1.808492669466955222e-02
2.249689436798165548e-02
1.888120373455299053e-02
1.384092544246907745e-02
1.125875214591372936e-02
3.958593686504055520e-02
2.896283765221347242e-02
1.806605225536624115e-02
3.318305646264690240e-02
2.694246788831164419e-02
4.104302808814693643e-02
1.636084965679992717e-02
2.119543332193240398e-02
4.628721976503476221e-02
2.358706119252914138e-02
2.325180180869965141e-02
2.686849792430643508e-02
3.468751384051339121e-02
3.803173223271723302e-02
1.707676010442870859e-02
2.379930823841553897e-02
1.492991207401170133e-02
1.660354147309355335e-02
9.183580006017207781e-03
1.363442884786201723e-02
1.097733187551840420e-02
4.185231452326643869e-02
3.529288438134751266e-02
3.677223686732239427e-02
2.915269270918774761e-02
1.369908843770006011e-02
6.913973711847549997e-03
1.854514260690445782e-02
4.411975624737327246e-03
2.980421180247758497e-02
9.832714523830698647e-03
9.225565074892094070e-03
5.874206120041188667e-03
2.372178543671355985e-02
1.461930378172618221e-02
1.594485508910399932e-02
2.427858385504707076e-02
1.491455262305600889e-02
2.077478977904835544e-02
1.573361227429365475e-02
1.872510151423789279e-02
2.174663226886866876e-02
4.364034472976524581e-02
1.800123468519215092e-02
1.391711534382699365e-02
3.425554166422378061e-02
2.323329102902406754e-02
4.883992077893606690e-03
1.322364857658472719e-02
1.360406883447261989e-02
2.037752120975824116e-02
8.098247467678914083e-03
7.175831934179662148e-03
2.316661912430484707e-02
7.720907017040901620e-03
1.046539009820084479e-02
2.032913151511894084e-02
2.807598469679141104e-02
2.464635237846035665e-02
1.140609815095250910e-02
6.591347491781173080e-03
9.423023617236304592e-03
8.500396930115195274e-03
2.736722732888037610e-03
8.591013234175342086e-03
2.092961895715906781e-02
1.831319346016529667e-02
2.072830733511063506e-02
4.880685336329099178e-03
1.417510711426353716e-02
1.602202597796921479e-02
3.641243678867067332e-03
1.427041073458272004e-02
6.206423254570806250e-03
9.194185098069284148e-03
6.740939164525365165e-03
2.108028614406436477e-02
1.768548930555202681e-02
1.803947451756228101e-02
1.921245041983459662e-02
3.788112506080131697e-02
2.189512419123089762e-02
1.058699635401210391e-02
1.891625143293984221e-02
7.069390879783459675e-03
4.703052979716657728e-03
2.400375618949729048e-02
1.085907326227123285e-02
2.354425648589733838e-03
1.639148184820596321e-02
1.545213907403147555e-02
8.675970679053134765e-03
1.407477608407301309e-02
1.932179321580656042e-02
1.278939220597461249e-02
3.201495451318733115e-02
1.602360542554058520e-02
1.461182157705818475e-02
3.180857699024057517e-02
1.627806809701203006e-02
1.892701632990654789e-02
1.515974725910307352e-02
1.480498304266064137e-02
1.141096073801314142e-02
1.622634296539506721e-02
1.666943547260361577e-02
1.297203804995342505e-02
1.198411090758152303e-02
2.091882927669540607e-02
1.806176013412216438e-02
2.110840250820938957e-02
1.059105480676858675e-02
1.731347509732882733e-02
4.368272183708422039e-03
1.327972899008618077e-02
1.801092061538620004e-02
6.627416494092162706e-03
1.021469925474451264e-02
2.113407032439211866e-02
1.856094904001306597e-02
5.542330820618787159e-03
1.113323407970357413e-02
8.387317431823651526e-03
2.788904425380638388e-02
1.671784457216837425e-02
8.538578616562222945e-03
1.465635056927759063e-02
3.147322348907891781e-02
2.054056277035355010e-02
2.463081378958100268e-02
2.383687145833890755e-02
1.409865705962310908e-02
1.634319581026057525e-02
1.852830768129560060e-02
2.777141553463723100e-03
6.078595843217222830e-04
1.302986438961962340e-02
1.030753341707818689e-02
8.906687097547633103e-03
1.464661423232054005e-02
1.100906439027512888e-02
2.080569882674784474e-02
1.026238363438053240e-02
1.123937070712721469e-02
1.820534845960521467e-02
1.112119707994304631e-02
8.514803619167588336e-03
5.258630873494206902e-03
2.775917746766468682e-03
1.010917092327186587e-02
6.665964845795544630e-03
1.124144314093609640e-02
1.130865947514985391e-02
1.251105314343078229e-02
1.582299193376254798e-02
1.975632449711136468e-02
1.050507091916469231e-02
1.066148610253581271e-02
9.871361117373786409e-03
1.529520567679504804e-02
1.118104380043202090e-02
1.062865345925759035e-02
6.513889129801818736e-03
1.842770801382353010e-02
1.509751561676909125e-02
1.140323711320521440e-02
1.189083625645665290e-02
1.387890262654209103e-02
1.069000048991988056e-02
5.963696987001126763e-03
5.219511421628051512e-03
1.912534725332185048e-02
7.620406610597192307e-03
1.809472551558484812e-02
1.053513291314937123e-02
4.692367825845678540e-03
1.120020712026824176e-02
1.494038189832997895e-02
1.381306733068050213e-02
1.338236936506378982e-02
3.272902820794856144e-02
1.243437095408897637e-02
1.550922947154633087e-02
1.577429214419726056e-02
7.988698373271652109e-03
1.766519125100232679e-02
1.071440432424683627e-02
1.641109183249410408e-02
9.633798134888118744e-03
1.729107127840391611e-02
6.881623077488547603e-03
1.079048155304700857e-02
5.371055336691499781e-03
1.049763110729194648e-02
1.558661554616108842e-02
6.259587314424895459e-03
2.278599488298622966e-02
8.876146516976985215e-03
3.453183955231344839e-03
6.365613569175445491e-03
1.213532093751870135e-02
3.066384221846887772e-03
2.550691057099015516e-03
1.008007115485239254e-02
5.322601653295751419e-03
5.721263778263315641e-03
9.855078572444983531e-03
9.280922496241869254e-03
1.084729989887582048e-02
1.125362870990239197e-02
9.015982349534979595e-03
1.198888075078531970e-02
1.484870015300775517e-02
1.129581081466884442e-02
8.704754525271680629e-03
1.148552387333316542e-02
1.434509667740474156e-02
1.017739542126821183e-02
5.659430937894931006e-03
6.937196781851216222e-03
1.136601754409259299e-02
7.637785696842985458e-03
4.221889431574436281e-03
1.431556019066794819e-02
1.398213527529775999e-02
1.505413714898678687e-02
5.573745908777906835e-03
1.124763939727111903e-02
5.925285001999898264e-03
1.703401433553082892e-02
1.757518084471153957e-02
1.378138779392962775e-02
1.780074307913998358e-02
8.342015010880454023e-03
6.650083895607920501e-03
9.607514413400968997e-03
7.374596810121983141e-03
8.577201632236306286e-03
1.669868899052976904e-02
7.676829283699980640e-03
6.794051445399563322e-03
1.109133782351693839e-02
1.411833704697702981e-02
1.025073755890103938e-02
6.236466855851091791e-03
8.917155522985402774e-03
6.501976051509159374e-03
2.998139486109063084e-03
7.057137634081190117e-04
6.207777173653770443e-03
3.104086512221297320e-03
7.572085539587148501e-03
8.011506494686642180e-03
9.133750364536114344e-03
6.052198298661094940e-03
4.336754827552564626e-03
7.091897957839885316e-03
5.643800520407470621e-03
2.663424566176877039e-04
2.610521181463677180e-03
8.740284110933227088e-03
1.144677140626073134e-02
6.416710684816428339e-03
3.793469237727889725e-03
9.695144874961226025e-03
8.108535087124361593e-03
2.255743127050817507e-03
9.363673152602293090e-03
7.640521005992879748e-03
5.644219240246781469e-03
8.029595350765472705e-03
7.607653795188098339e-03
1.732061178203002936e-03
2.571623003295059415e-03
4.530060037735851586e-03
5.079438661920422475e-03
9.705888748122396686e-03
4.543419108181402134e-03
9.844176139311138635e-03
1.718298218915427717e-03
1.124497839263339507e-03
4.484241210923336877e-03
6.944959709651306150e-03
1.219585525957330580e-02
2.601410465315822946e-03
8.374266071621672136e-03
3.885675726985780062e-03
7.632523729746897891e-03
1.363277188189605457e-02
2.505887206525382344e-03
4.020981885603899970e-03
9.092218684054423350e-03
9.948347605045385067e-03
7.655722501472134005e-03
1.904701208113844914e-03
5.663000293090420488e-03
8.642439668556657325e-04
9.630803687299568233e-03
9.647087945263052230e-03
9.250992697170954196e-03
1.652672078539265581e-03
2.856205536536586976e-03
1.059607890127138401e-02
1.196119245169280018e-02
1.287377917244934313e-02
5.452746087332807287e-03
1.093052708045960143e-02
5.054551958211681885e-03
5.307315874651476195e-03
1.063871745862738326e-02
1.140290962281487316e-03
3.435340055411842917e-03
5.168779812415326934e-03
5.866233242735238371e-03
3.744460183606347376e-03
7.783903325788306057e-03
5.294386330753572852e-03
6.869838324991434444e-03
7.579358401386011683e-03
2.446954655042298931e-03
3.895705659925670708e-03
1.614906383858054654e-03
5.163783331399317625e-03
4.417513644974662736e-03
8.733264159529628354e-03
8.371164373268085226e-03
1.440795616232881269e-03
4.430590096978517974e-03
2.797907746115844106e-03
4.443323581177468021e-03
6.021775627742090992e-03
3.263417263017073626e-03
5.130068450672836504e-03
7.751391736160500451e-03
2.490093623012589949e-03
4.595682139025566472e-03
6.085279147412542104e-03
2.521923153111324100e-03
6.573208896434967578e-03
1.350393940342006814e-03
4.672507220651064483e-03
6.252080190062497128e-03
1.403833990471634345e-03
5.061495713281316880e-03
8.618109468682752863e-03
3.739135282205585491e-03
5.839874015197357368e-03
1.402032196311192450e-03
3.416590872008700656e-03
4.212505601503688073e-03
2.054485089053141155e-03
4.815938174091662603e-03
2.850380673839197129e-03
3.095601344826670598e-03
4.398091628138328484e-03
1.201846119074125464e-03
3.269068491739482007e-03
5.157385111571119972e-03
1.257949149135345092e-03
3.853339467934820996e-03
5.283210759822785409e-03
5.841934113900584293e-03
7.362291648186133214e-03
2.473191896097731626e-03
7.991483210406088999e-03
3.554737972403658984e-03
5.222834232260275232e-03
1.991523371564515952e-03
1.044654129899216929e-03
2.344157957937911211e-03
4.534146890722845491e-03
6.627913556789757779e-04
2.695254399452111371e-03
3.024814553136418848e-03
1.890178181522443298e-03
2.037213744183965277e-03
4.248794392621721774e-03
7.883667056560746123e-03
6.605255036862905937e-03
1.505081157485712315e-03
5.147614006002068643e-03
1.214079856931198379e-03
4.652469197327275402e-03
8.364784609388746170e-03
4.610556747724854285e-03
4.307347916313899322e-03
2.525231427482289761e-03
2.855607478453591874e-03
8.696538478002131334e-04
3.874424169229974662e-03
3.776182256875551969e-03
4.524600199231263147e-04
3.732401493751529020e-03
6.273318003843377823e-03
3.429440238495128340e-03
5.952499703622721704e-03
6.036738631518987104e-03
3.284125299071376323e-03
3.973175680349682638e-03
4.448972074856303270e-03
2.040719255550297803e-03
4.640027676578128285e-03
3.050226964191900432e-03
3.361193726763852824e-03
4.737793253341757854e-03
4.372048852943834392e-03
4.465304945629672349e-04
1.175490767645513300e-03
1.370171214869814321e-03
4.162610788123257376e-03
1.034384584992841232e-03
1.685560002544917628e-03
5.488030405420731353e-03
8.820011135106338223e-04
4.233109782244213505e-03
3.070595600993829104e-03
4.771573687146904788e-03
2.074738064246195186e-03
1.849134881168194508e-03
2.064615358441109372e-03
1.535914848769991559e-03
4.770416194342522523e-03
3.078081846057060221e-03
1.390040920972931320e-03
2.121057210842270703e-03
6.146489577124320328e-03
2.708041053150357820e-03
8.228741104091202374e-04
3.817869004786836936e-03
5.501149044019685566e-04
2.425850020202472302e-03
2.786987297456143368e-03
3.145552990240602868e-03
4.279259088831874683e-03
2.346129307423729451e-03
6.264988182080427105e-03
6.368194120150395474e-03
3.336405113189994023e-03
2.647560622633935486e-03
2.964746950697501066e-03
5.400717046872213767e-03
2.325375143021934324e-03
3.008385466721412091e-03
3.989203311261819464e-03
3.135456874041512351e-03
1.390987925423091019e-03
1.158896075791497832e-03
2.153131014811651006e-03
2.148818664575110910e-03
4.024948991225713035e-03
3.994685586553151958e-03
4.628574802456738961e-03
3.821845853368464364e-03
1.196543840523616635e-03
2.538279175041877750e-03
3.924354644522061279e-03
2.774030468111835998e-03
1.942782887711738855e-03
2.216212040177576066e-03
2.370665364042264314e-03
1.096106626280811402e-03
2.917281121171351466e-03
1.866936019168452879e-03
3.613266752398485056e-03
6.616265898989324469e-04
4.917937652871048719e-03
1.704542849877230303e-03
3.046695258840905179e-03
3.249820732557490415e-03
3.542590132202713595e-03
8.317091195717586649e-04
2.075951610090918248e-03
1.297804754491757541e-03
2.348193853519716864e-03
7.151848343740507558e-04
1.203823839050157610e-03
4.230133076823245318e-03
1.867327780982039895e-03
5.333540975202311378e-04
1.201541838549778207e-03
4.353920926293996206e-03
2.426859501548177516e-03
2.015529626851279062e-03
1.777454319085998219e-03
4.227482738605534661e-03
2.104847513857867249e-03
5.293201705292812417e-04
1.705925472594689790e-03
2.601140752778829338e-03
4.093688881170991049e-03
2.996446510857135506e-03
3.198282691825659902e-03
1.027577728627953333e-03
3.721152021586353505e-03
4.072975903143482256e-03
1.085076946094409769e-03
1.077407957906409202e-03
1.674178369066428584e-03
4.056659598182383621e-03
3.794346535901885892e-04
1.804049254589468925e-03
2.734764936245154526e-03
3.228370614253919801e-03
3.616171668999892865e-03
1.400788874481759391e-03
2.148539948915246384e-03
3.006524585712532730e-03
4.052637143410693470e-03
3.410523951083710426e-03
1.033732995293516104e-03
2.622527951808995266e-03
3.613314731969245047e-03
1.846255317082713589e-03
2.162574534688509187e-03
4.340046705577015832e-04
1.114450935190194935e-03
3.042284821044505955e-03
1.286793634150102924e-03
2.400411372077562635e-03
1.002000833333056926e-03
2.404183187339676599e-03
1.742012527645109277e-03
2.307726373105022533e-03
1.352236780890727014e-03
1.033517934387546576e-03
1.543943262622662644e-03
1.760490934185002763e-03
8.505555380617644320e-04
3.654884183687219686e-03
1.988986571932584504e-03
6.062916640829199609e-04
1.820789532431526126e-03
2.037228285138257492e-03
1.366922223712395629e-03
1.737610170695700739e-04
1.367824236933576831e-03
1.452666937185051379e-03
3.633096342841546107e-03
2.246186753141224575e-03
2.476557147660565523e-03
2.087162419654125297e-03
2.573690116013309208e-03
4.804008562689035685e-04
2.192589128642070517e-03
8.707138671006912261e-04
1.312036340473075663e-03
8.728167768820069674e-04
9.301362709767011742e-04
2.896869457207774511e-03
4.901819167725379994e-04
1.568392644706768490e-03
3.931337984632235147e-03
1.153860112240026993e-03
1.760293757990452103e-03
2.777195697268806593e-03
1.536044964113208403e-03
9.885308477391781690e-04
1.398166723335885061e-03
3.694607289357183973e-03
1.704862959612164601e-03
2.017735286700980766e-03
1.437039519738330263e-03
1.967624718831571373e-03
1.060715531346384044e-03
5.475447380287827960e-04
1.932061816816819152e-03
1.346087977414953596e-03
1.236066452926298321e-03
9.628976082669887457e-04
1.400296013295649613e-03
1.679850151418585446e-03
1.633776374181359486e-03
1.266280886611029222e-03
1.892673943977411961e-03
1.743901570184147522e-04
3.931311865795764776e-03
1.445571227024855607e-03
4.386643406730889819e-04
8.294970149117727749e-04
7.734186809115437022e-05
2.083186664714375014e-03
1.694663570892763517e-03
2.631585341016210583e-03
1.824543917680574194e-03
2.114671543874997815e-03
6.733146692698191958e-04
1.175066246170196425e-03
1.483390586754997249e-03
1.184198443737704155e-03
1.827252374200278532e-03
1.751143622109136268e-03
1.375856403152827265e-03
6.887047339547342807e-04
1.461637170885934965e-03
2.939665000244125193e-03
5.899739810754410854e-04
5.752174181270941922e-04
1.697216711513259641e-03
1.676323722542318257e-03
1.870977375478075945e-03
4.157696392627684492e-04
8.276087526155889587e-04
1.335270286986001533e-03
3.310090371295114895e-04
5.342737780853344838e-04
2.487826122803446938e-03
1.958838931995498644e-03
1.252742466577586294e-03
2.625214256420021564e-04
8.229455543732340072e-04
1.091603201263392688e-03
9.014365199100971048e-04
1.510950362742221513e-03
6.308407180687149738e-04
2.980829645276716769e-04
1.268449040244462979e-03
4.960566430516701085e-04
9.060020263945091270e-04
8.284599365688527766e-04
2.583522628053709289e-03
1.622836765570904094e-03
1.532833379605800725e-03
1.092751722400776880e-03
1.099547866161361799e-03
2.374953340544934063e-04
1.766010132039042609e-03
1.841338704429584415e-03
1.582819738389336719e-03
1.380303274831932644e-03
6.397423391938429366e-04
1.348072731156297038e-03
1.186627246484927298e-03
7.661428449516365828e-04
2.275122160264989729e-03
8.917048726275659089e-04
1.213651541867047162e-03
6.253165441549116696e-04
8.743535170547548285e-04
8.651358097281132854e-04
8.990012737206360760e-04
6.559120316065899896e-04
1.912400168955061990e-04
1.290629627787876106e-03
4.671763532253141518e-04
5.750679175259253151e-04
5.879262111061168625e-04
1.088949214170112064e-03
1.362963609980285488e-03
1.216341095146640907e-03
1.172970517019201065e-03
6.641874420124575622e-04
8.422184169669267445e-04
8.457051492281896822e-04
5.532845499095142162e-04
9.099886105785225587e-04
5.876652738476486780e-04
6.524803408480706751e-04
4.713759109100287815e-04
1.692659127444425243e-03
4.511117819961378453e-04
1.936025071169313137e-04
4.409115480644007143e-04
7.267149841349934908e-04
1.865487734074501743e-04
5.304377759605749055e-04
5.854542258203429030e-04
8.574889051866764825e-04
7.341552753139323579e-04
1.131564073154152708e-03
3.017334230060827365e-04
5.354491477867862970e-04
8.776079995631634427e-04
8.012025435964634061e-05
7.241417824193923823e-04
1.076646343057379926e-03
1.253318444900726513e-03
1.010691028442776973e-03
5.978967568138791400e-04
1.183673380522837302e-03
1.286572809385433825e-03
1.947555833113882471e-04
4.486500329127901510e-04
6.052587987925812452e-04
1.240140672439924308e-03
1.045885085188526025e-03
7.056142014164435523e-04
1.359165257638277318e-03
5.950346451084040150e-04
9.639376092810281876e-04
3.527310252984997940e-04
1.201200186704461060e-03
9.532954214462281218e-04
1.031693783113153077e-03
8.830538330684824331e-04
1.418300748166409411e-03
1.409352598663208200e-03
3.173416140916055926e-04
7.778208321440472760e-04
4.685585289715534039e-04
4.950197995907223807e-04
1.070931012441396664e-03
1.190565186316797260e-03
1.375853156115335084e-03
6.543956703530638555e-04
8.181923258877442286e-04
6.987149453178421446e-04
1.637672866304769955e-04
9.120004658001650910e-04
9.305318240535625412e-04
1.355728672209143004e-03
9.301035999039489405e-04
6.372913114735041145e-04
7.249226925045957910e-04
1.418803546386556173e-03
1.002137999985826299e-03
1.730010256947452877e-04
9.629509084089320214e-04
7.158934060314610555e-04
7.830485629920826965e-04
1.285487786380456934e-03
1.081015420822598180e-03
8.374880333665149024e-04
9.094518057927608893e-04
7.507179483296118078e-04
3.843719855528029928e-04
4.777199135376362558e-04
1.213449914257050399e-03
1.216784902973376515e-04
6.145477733495570373e-04
7.516044970696368708e-04
8.698125148852604849e-04
8.752126522133498376e-04
1.218296400282568382e-03
9.562992005537090294e-04
4.639004908394594095e-04
4.281757459073826121e-04
7.458825970865134904e-04
3.654781244914666414e-04
9.231833528684088097e-04
8.398826926808813150e-04
9.954243705815378571e-04
4.415924881977323856e-04
2.452112514164142792e-04
6.987612579549136145e-04
7.144573847394723167e-04
6.146535752703107154e-04
6.490149324443023841e-04
1.115912937254672464e-03
3.756234821397021911e-04
4.599577816633649359e-04
6.666719967720041023e-04
4.738335795217217907e-04
3.580227073684232172e-04
1.011629810469029779e-03
5.983775603250978238e-04
5.328831258033315654e-04
9.997945282484842645e-04
4.803321321408617105e-04
8.549523327327687152e-04
1.261104517561371019e-03
2.519201220069016388e-04
1.027957471046909944e-03
5.734268243617565187e-04
1.070232234529109629e-03
7.124901883683531188e-04
1.358739524694478271e-04
8.520021262776139408e-04
5.972459308478208530e-04
1.045552621330499360e-03
7.322393712864559874e-04
7.689218981297551297e-04
5.889357207771603537e-04
2.789758293185255192e-04
9.356814615126623439e-04
8.156499044225471590e-04
9.199028079081755837e-04
1.165614860079881810e-03
5.049617789542242084e-04
9.355547358441074430e-04
1.128236535706272654e-03
1.291720024679366514e-03
4.509684488361676642e-04
4.482262652752620714e-04
7.742740974867475499e-04
1.130848175821227205e-03
9.364255980019315631e-04
6.470833628053934868e-04
6.284118189341739982e-04
1.142352179997935951e-03
6.010167513191450343e-04
9.593848923869912086e-04
1.069789533852627062e-03
5.310575953734992345e-04
1.024765512009503986e-03
9.208514205666296819e-04
7.286177978765419425e-04
4.063956758373259235e-04
3.283969863961042871e-04
8.514617085218635466e-04
4.903825369610442407e-04
9.298834752246529787e-04
4.394401067186030647e-04
8.190860681991378629e-04
5.108044083962907543e-04
4.953047623631446315e-04
1.069008715766189138e-03
8.614915507697898378e-04
9.636799905173527641e-04
6.978753420006986305e-04
8.891430197534820612e-04
6.867272166270516238e-04
5.134886215722556753e-04
7.180904299679341995e-04
6.544331318430340492e-04
5.748073079926628278e-04
7.548282441712867363e-04
5.468921575541869223e-04
4.864898491322064400e-04
8.075826057645281051e-04
8.125116764023726165e-04
8.569535945582299396e-04
3.439068949018441400e-04
7.735649322077439629e-04
4.591339510271600418e-04
6.467614993273182455e-04
7.093632443081732651e-04
4.414673080036616041e-04
8.207689413730566950e-04
9.681311935574302878e-04
7.442995543956408555e-04
6.864974916822860285e-04
2.612037399879269992e-04
3.224080168614735825e-04
3.591452894292591555e-04
1.010017001391012945e-03
7.195767413935484245e-04
5.933692850605935690e-04
6.212893497114359374e-04
5.733348648805548656e-04
5.189029750436015363e-04
8.221699258133724529e-04
6.309701537674600397e-04
3.977230083366810093e-04
7.432296432871484662e-04
1.158881802760636210e-04
8.999866303678822135e-04
5.830616850548125257e-04
6.140208825813325139e-04
9.671012658931212643e-04
5.646887865629868740e-04
8.416862367496239384e-04
4.110759326956296093e-04
7.433945629342821743e-04
6.399216961452684933e-04
4.364663791963322033e-04
5.287182902037504233e-04
6.547391451176799108e-04
5.594191370958772041e-04
6.764342925345022189e-04
6.562115773896755365e-04
1.019309327855239412e-03
6.430797300973360633e-04
1.586744467597214813e-04
6.780380703064436661e-04
2.842998610088932616e-04
5.720782390815341454e-04
6.921914023507787662e-04
7.961110416134452826e-04
8.448521075998337683e-04
4.509389016286390029e-04
9.298979865898750674e-04
7.408062531679301911e-04
3.570556463083042953e-04
1.141734838279840659e-03
6.660224865518174454e-04
5.698147722168311457e-04
7.637677897587790386e-04
6.895387729627176603e-04
3.160691213488839974e-04
6.743142132575897238e-04
6.786805854125401403e-04
3.164212282133616180e-04
6.995837161828874495e-04
5.870889868687806379e-04
5.803348386348930335e-04
6.899292616826454292e-04
5.304151167977688404e-04
5.545886308771664358e-04
7.957516018295020645e-04
6.684819555307891081e-04
5.651580289855574020e-04
6.502553347052448304e-04
3.976927923933998104e-04
5.414657487831357361e-04
7.421076251724658670e-04
4.384258881263157536e-04
7.470714344775911423e-04
6.327554132384302730e-04
7.084754344982420416e-04
7.807524190239203878e-04
5.157331066103960655e-04
4.811237209489421145e-04
8.131680100210192429e-04
3.963454897533668633e-04
6.674169192874520370e-04
6.869439328373003239e-04
6.482028279421074091e-04
7.453197523222863203e-04
5.726241943394265888e-04
6.391314770269378382e-04
3.742148633604542468e-04
7.366203847062442961e-04
4.522100696227759507e-04
7.944905165274909363e-04
6.025141139614153488e-04
5.689394722436394523e-04
5.117457071483636020e-04
6.120921586714116831e-04
6.469059083657924432e-04
8.063542430431466009e-04
4.316733793218025775e-04
5.600362109600437888e-04
6.746917816510261809e-04
5.464946735103157855e-04
5.550193355646164785e-04
5.330534089974447651e-04
5.717799366663970208e-04
6.179243206946197870e-04
5.830413086729092443e-04
6.327671392910831248e-04
4.837437679635763236e-04
3.647976739058934209e-04
6.040445430138853544e-04
5.133951211530958427e-04
6.243286697306140148e-04
6.313111855152656526e-04
6.998125535027597535e-04
5.538338048511818983e-04
6.176093255150431720e-04
7.135882246005930329e-04
6.055515050328771345e-04
6.921405036588188040e-04
6.271233296150411458e-04
6.600954984557113594e-04
6.183829930937343117e-04
5.202244433857780830e-04
6.698847707344575235e-04
4.687438716886169936e-04
4.832947075338120814e-04
5.781081247487155099e-04
5.818366870617048018e-04
4.890538301147068266e-04
6.607799576853242828e-04
5.508231034823352036e-04
4.701601121009908279e-04
4.959528411677261014e-04
4.568920108036659340e-04
5.730461804881047290e-04
5.240494891311656481e-04
5.213316918066035260e-04
5.969505924099158907e-04
6.503315992207660831e-04
5.909903370874600550e-04
5.076433151126843232e-04
4.505838849262877978e-04
4.769389859692512780e-04
7.293099491258421899e-04
7.167415898231153850e-04
6.413417374322166612e-04
5.306730394799386930e-04
5.449154931302998151e-04
6.505480960732384823e-04
6.559316229352220740e-04
6.873933034562720564e-04
6.505363223252331887e-04
4.934015056198774295e-04
4.612111363631671225e-04
6.760720656144440007e-04
6.442039999526228593e-04
5.476691722111707563e-04
6.504346482010200676e-04
5.185553950950493127e-04
6.287169510026652643e-04
6.496933568771422196e-04
7.140659168906711906e-04
5.291623153420358088e-04
4.279406403162866728e-04
6.889454822794325878e-04
5.750082961598443777e-04
4.920044104770216094e-04
6.117177589008959129e-04
4.665325391337969848e-04
7.128610941616694190e-04
6.264215512086828081e-04
5.578612776172375658e-04
7.700949311984192939e-04
5.624987280522828837e-04
5.552866805702773214e-04
5.535529241823147848e-04
7.216232562667558754e-04
5.171810542077576612e-04
6.611273350951094984e-04
6.638749258169231865e-04
6.020156730393060518e-04
5.632461333684289249e-04
5.314093929469358886e-04
5.605379671946989547e-04
4.879066496473474465e-04
7.686571769290969800e-04
5.593164343926856907e-04
5.973618487058110623e-04
6.214205870114957505e-04
6.225693021609091495e-04
6.104382496449320449e-04
5.000756644347631756e-04
5.093976910445364558e-04
5.591516875953158900e-04
5.139427725827538278e-04
5.207117464343424861e-04
5.657628904810192531e-04
4.618299558977382148e-04
5.557961024987873467e-04
5.827353786637442645e-04
5.498843553836714340e-04
6.908959084376646836e-04
5.921338460323011862e-04
5.859561470061189735e-04
5.058804038566391045e-04
5.637595929183588815e-04
4.848247915872550191e-04
5.629033738930678881e-04
5.564493606842263939e-04
6.225032914862039342e-04
6.693444334393282595e-04
5.457609396825666278e-04
5.999194592563222893e-04
7.187054589644188089e-04
4.586006118879098407e-04
5.717669730910891800e-04
6.634010991436902057e-04
5.910547719013315186e-04
5.866478296479638640e-04
5.671510465680017384e-04
5.602575333028607342e-04
6.168932956569242671e-04
5.371966966979852031e-04
6.197655150307894868e-04
6.078765741224695417e-04
5.550041848781619340e-04
5.317177637206218100e-04
5.981374646834661810e-04
4.866843573181783324e-04
6.063200146814212623e-04
6.857067309965316545e-04
5.319102983176405772e-04
6.007831522405460405e-04
6.061831751289303936e-04
5.165059384029391243e-04
5.912067134628334539e-04
5.454197003036950287e-04
6.410876708324477879e-04
5.642776313067649667e-04
5.793398459227208728e-04
6.044947038326175300e-04
6.090649252342040122e-04
5.812624898479472856e-04
5.748940221322453113e-04
5.884568712824464779e-04
5.292272267348154457e-04
5.233008287829774485e-04
5.799881440767088196e-04
6.447696574478572291e-04
5.619098956157652291e-04
5.316589233011051246e-04
5.490452102590889609e-04
5.552950726015018794e-04
5.613062603416549409e-04
4.612133438055922622e-04
5.865318811868356838e-04
5.545674066442311508e-04
5.916051309909840491e-04
5.896332639015352791e-04
5.213719816805570135e-04
5.035812076698010760e-04
6.188957484360849744e-04
5.763541835628711255e-04
6.291688240681227043e-04
6.501009588122857790e-04
5.616803933615998603e-04
5.884830934447890126e-04
5.018498538224703664e-04
5.730278008079748783e-04
5.411618674787982853e-04
5.900354532595899473e-04
6.112867391556955823e-04
5.924110158347324412e-04
5.926116082167194425e-04
5.305639890193762252e-04
6.013843267976454231e-04
5.515048983809020837e-04
5.709928721239907390e-04
6.274535839384991556e-04
5.172603773221432204e-04
5.421550841737107556e-04
6.064474695375035801e-04
6.050450378397709402e-04
5.751564811841776339e-04
5.706662166780875284e-04
6.024835405848830757e-04
5.427932580599227879e-04
5.552909761090732942e-04
6.230083765992113247e-04
5.154944046957097995e-04
5.379284609366868398e-04
5.379304933616812015e-04
5.319350060319281938e-04
6.303219233192497092e-04
5.237370807719266127e-04
5.366253371077721367e-04
5.615597920692839626e-04
5.149474955948667686e-04
5.580402347316489303e-04
5.743039300805840219e-04
5.811649984885615882e-04
5.701624047190274229e-04
5.924578010904393279e-04
5.095413493720109960e-04
5.620595463361124791e-04
5.962426118067177833e-04
5.953702447682210049e-04
5.955708688224846782e-04
5.405443205873552807e-04
5.412036387334329818e-04
5.767304140688770753e-04
5.580376163691715737e-04
4.999969933465597946e-04
6.215871349632890765e-04
5.834478586420978113e-04
5.472677243045596246e-04
6.095086490884740835e-04
5.486078491429637353e-04
4.939723134584168493e-04
5.561449345258854485e-04
5.591682794053691452e-04
5.776895883245361605e-04
5.474972688046153731e-04
5.993480988915508541e-04
5.392345544696731724e-04
5.772277827507105294e-04
5.864833543475719575e-04
5.910197855626806883e-04
5.552450668856675781e-04
5.856181326527301525e-04
5.920716817332260812e-04
5.680143325120433307e-04
5.845804441860811629e-04
5.334936171029348428e-04
5.211585083913454876e-04
5.174198368686789293e-04
5.886403519600582951e-04
5.383345519153499154e-04
5.661349242439389076e-04
5.502879421760668724e-04
5.621213979365642958e-04
6.265536068531736861e-04
5.244608674240747647e-04
5.955565871142563155e-04
5.439983988884839481e-04
5.679029285926621940e-04
5.530414147182383675e-04
5.538693401740730658e-04
5.572712989271980154e-04
5.915862075340776616e-04
5.510887628082755630e-04
5.670016914985230756e-04
6.020385386134831851e-04
5.835760809364096309e-04
5.456022542867960045e-04
5.164540053172247003e-04
5.503496256129003505e-04
5.366266267496152143e-04
5.678594766239783345e-04
5.711653942740922132e-04
5.397813155665427600e-04
5.697149918518087204e-04
5.522374688320990299e-04
5.741841383963330664e-04
5.360116279288767299e-04
5.419592890819773835e-04
5.666493854944316391e-04
5.948047666951924604e-04
5.790531196575706904e-04
5.544308597311643685e-04
5.534863314381482545e-04
5.608647575953048517e-04
5.661465232611771281e-04
5.636337807069478900e-04
5.379265633852783023e-04
5.823551827901452200e-04
5.916836988410909730e-04
5.649992790181960827e-04
5.552153532158342559e-04
5.665087931961679995e-04
5.474881511874880391e-04
5.810642382036624752e-04
5.541853606517504419e-04
5.411716328694726611e-04
5.026305067110702421e-04
5.769402375448785857e-04
5.740683402851476684e-04
5.441804381546555807e-04
5.825664722971142517e-04
5.951645915335813638e-04
5.484150892938438170e-04
5.629193345014318114e-04
5.802626436539527364e-04
5.782471607842055517e-04
5.725862874798892145e-04
5.920570322501618509e-04
5.562221167651577522e-04
5.564641423330896541e-04
5.590228156523138672e-04
5.880477896805368521e-04
5.495406631880286365e-04
5.543311803723823157e-04
5.893697597188070304e-04
5.419549263971783519e-04
5.486437892041287233e-04
5.489447468253651078e-04
5.465110517980990802e-04
5.400719459705363192e-04
5.567958586525261541e-04
5.348859144590661138e-04
5.650527847727477865e-04
5.543559283160018423e-04
5.137844297553751521e-04
5.851409990882596585e-04
5.640078764074132715e-04
5.567903034390035656e-04
5.618175566603080635e-04
5.396979313964750348e-04
5.363583402992613347e-04
5.715192386900983272e-04
5.447258921216583663e-04
5.413926966719435734e-04
5.379947575990874946e-04
5.203313134468159906e-04
5.260441190650604710e-04
5.593974185800251308e-04
5.511766075446996715e-04
5.729133495849311883e-04
5.520396340158109259e-04
5.617011610057095865e-04
5.499410000287531216e-04
5.706158499121198602e-04
5.203199191302514993e-04
5.677230508737429477e-04
5.427125569511107635e-04
5.558293954670014657e-04
5.348859477799288928e-04
5.742233549294035837e-04
5.409365436344960344e-04
5.507685382679507018e-04
5.533250474242467319e-04
5.328678873437502550e-04
5.688585826831395794e-04
5.387961583781118637e-04
5.337277252470874365e-04
5.411569835000691392e-04
5.352742488442617909e-04
5.686712599848027603e-04
5.205798844507244279e-04
5.436606718414244621e-04
5.413937184520686017e-04
5.670537168619589879e-04
5.544135423240437654e-04
5.535373029420022090e-04
5.387540656622519068e-04
5.259959366896779917e-04
5.458019750392572884e-04
5.576921970408972020e-04
5.686336770563231446e-04
5.677435988258307210e-04
5.660786419625946520e-04
5.529048716589177919e-04
5.390757414054576143e-04
5.616122904534931416e-04
5.701206216385399294e-04
5.553466009369567363e-04
5.382823241824603432e-04
5.689180484606433386e-04
5.395228362070116903e-04
5.354800247126315343e-04
5.540033612137809605e-04
5.221395309753085580e-04
5.573484827468681325e-04
5.434319361325559488e-04
5.456047799187931655e-04
5.471928581272371851e-04
5.495193609484821983e-04
5.467009428092849685e-04
5.661506201835801288e-04
5.458839129428653394e-04
5.174516976046757838e-04
5.635476287985648289e-04
5.738457979355844878e-04
5.221715007237335117e-04
5.536572426964610607e-04
5.493106866483729372e-04
5.388770449713740614e-04
5.594000048269459624e-04
5.488525389671629557e-04
5.483990887372736924e-04
5.572788980706397995e-04
5.345696749676182935e-04
5.365391716254191111e-04
5.434221239516438730e-04
5.496790377150877465e-04
5.464265589013649971e-04
5.536970619202323095e-04
5.539456161314063347e-04
5.441460520500884324e-04
5.449269396837812468e-04
5.341087050383122809e-04
5.455980146958015449e-04
5.604360014973117001e-04
5.406890186511702483e-04
5.371165133558032049e-04
5.252552421054135961e-04
5.398114249018371976e-04
5.391086962613790123e-04
5.419829562559252360e-04
5.411209876316045060e-04
5.325983169494872844e-04
5.512184070070622966e-04
5.412559192357202379e-04
5.246179881440119364e-04
5.433390082515967764e-04
5.368433978475103171e-04
5.293803406461007133e-04
5.457881586532579163e-04
5.421971463435179377e-04
5.470454518380940849e-04
5.490538585380938920e-04
5.366579723202677659e-04
5.445323719583479351e-04
5.542756641065441862e-04
5.557935361436889708e-04
5.383689219680860838e-04
5.476070918804143862e-04
5.364567770727602389e-04
5.385552412977756206e-04
5.286455716904812007e-04
5.480809629089181253e-04
5.496625788282241990e-04
5.512559348764616788e-04
5.518216666027456327e-04
5.327979359688140648e-04
5.464370997971701883e-04
5.403753604828878459e-04
5.439803434891030522e-04
5.223991229120467485e-04
5.553685025130867918e-04
5.381963171853719431e-04
5.285718207329513597e-04
5.467823889060105828e-04
5.381153062761492249e-04
5.444927492065912335e-04
5.408111676361537475e-04
5.381134637989051003e-04
5.404980381186382790e-04
5.242310467524125992e-04
5.382108783696268285e-04
5.291890358561303527e-04
5.317240876320075737e-04
5.284625647801716826e-04
5.353497819221387588e-04
5.420691365656743000e-04
5.397925721267565454e-04
5.566344679180533408e-04
5.317812480042217018e-04
5.390232546403971123e-04
5.440177308963257139e-04
5.422038598417840355e-04
5.421710654558060689e-04
5.460930431356492316e-04
5.355340497438444052e-04
5.399998709499488712e-04
5.483122390890525022e-04
5.464795184227132837e-04
5.537901293671555194e-04
5.361103770546368774e-04
5.327274566859759117e-04
5.328861060377398885e-04
5.468963617402673554e-04
5.295552562752305504e-04
5.311012133160174882e-04
5.418985820914339405e-04
5.404096673257953671e-04
5.352377581083518502e-04
5.303782767078262178e-04
5.385709129201347129e-04
5.272845439677472995e-04
5.466232900018621384e-04
5.371600446899357393e-04
5.335561868839729495e-04
5.425598238368434375e-04
5.423965555605201163e-04
5.348618019336886988e-04
5.307925912444731763e-04
5.404359548339479364e-04
5.295186614778874196e-04
5.317716856844158235e-04
5.287949721549395224e-04
5.309073732769476047e-04
5.335137267849556766e-04
5.462799570314941927e-04
5.310287396685398629e-04
5.405117168517377217e-04
5.342756964312923721e-04
5.338870025342959402e-04
5.348549404290451562e-04
5.276611052829419937e-04
5.350532014219696675e-04
5.369945141917864279e-04
5.348686112964191669e-04
5.277897954747760812e-04
5.437219667468183885e-04
5.326164678284331898e-04
5.354212058579911442e-04
5.443534936155575241e-04
5.292514311843137366e-04
5.362137721721447038e-04
5.216786902819911011e-04
5.244833097175932192e-04
5.300061463854040906e-04
5.320583182553601832e-04
5.348482166063191299e-04
5.363978921813882103e-04
5.243316751371899197e-04
5.338309942219853421e-04
5.319462078159137210e-04
5.260269824527787118e-04
5.312372403881785972e-04
5.283999184233398013e-04
5.282735432252541694e-04
5.289958444895380722e-04
5.358497373232397071e-04
5.287631991304622475e-04
5.360585588159113603e-04
5.274928125435643985e-04
5.342812550407482347e-04
5.307601658424850564e-04
5.287602628900187540e-04
5.278256625111897842e-04
5.294717702997673312e-04
5.288290213785930977e-04
5.254100065198770040e-04
5.351769164408667163e-04
5.285241453044535248e-04
5.296883228665298995e-04
5.297628572595351965e-04
5.297520021085431368e-04
5.238484092591913586e-04
5.279121217890772599e-04
5.197319027970016001e-04
5.288317442395894501e-04
5.333533281528906852e-04
5.273169311896642271e-04
5.281509046080892994e-04
5.343348167584228547e-04
5.275930199203137999e-04
5.324009617596477638e-04
5.305037994156161551e-04
5.296839891484896555e-04
5.294158955397075886e-04
5.263116213658722850e-04
5.271318106635558337e-04
5.303348832193415571e-04
5.226066411199332962e-04
5.315222027910920626e-04
5.289816690248745450e-04
5.345092268484782222e-04
5.279730712466827562e-04
5.317477497038710895e-04
5.251667683936339648e-04
5.291857999582648278e-04
5.277679573162633204e-04
5.289924241399101982e-04
5.266076972350596267e-04
5.303673054432353874e-04
5.305344161275685330e-04
5.248354812304092260e-04
5.273795820400122361e-04
5.264098313166960721e-04
5.235867841600587566e-04
5.289380188874486357e-04
5.249362372285325436e-04
5.209188278054155668e-04
5.253806010830105013e-04
5.217120532118082457e-04
5.215407743143057320e-04
5.245559084874098750e-04
5.222962114822414428e-04
5.271307880810523509e-04
5.243954004513596634e-04
5.252049216433974863e-04
5.247340578109640314e-04
5.211037136802832478e-04
5.261941968342482385e-04
5.209228787567955722e-04
5.271076125254737762e-04
5.288545923434912486e-04
5.280867742041948790e-04
5.222407425759620792e-04
5.256132711292679869e-04
5.249018748221952971e-04
5.245383286959698138e-04
5.248051143208283444e-04
5.227716363604540230e-04
5.244146951141736429e-04
5.267654990419042655e-04
5.228195377940457293e-04
5.179826005032536242e-04
5.221323024111027998e-04
5.262181104096306117e-04
5.247003129593493138e-04
5.246224629226408460e-04
5.255405820445026690e-04
5.256469493805962208e-04
5.216927032352223657e-04
5.224102699673667744e-04
5.217726745901708242e-04
5.219516786382937716e-04
5.254806039439397164e-04
5.184559694177454277e-04
5.217890510743986585e-04
5.241152888724135307e-04
5.229595975676435120e-04
5.242297456166209336e-04
5.164541494838102709e-04
5.224704023384671523e-04
5.265298687465591468e-04
5.168069105065969558e-04
5.203816243853125406e-04
5.220081656765831503e-04
5.211661845078224223e-04
5.183355619581804866e-04
5.187947259487277196e-04
5.221318321448407788e-04
5.210161432038392087e-04
5.220493431418388522e-04
5.202443399755710260e-04
5.211887631799544656e-04
5.167618780589497895e-04
5.207721788932432845e-04
5.202631175100591674e-04
5.183017998802221535e-04
5.180186220745474452e-04
5.210164976562417505e-04
5.195428571482491953e-04
5.213117943609653490e-04
5.166315880164424300e-04
5.197400545362391121e-04
5.180251897975714052e-04
5.189076920927675196e-04
5.183192264114687246e-04
5.194609705107134778e-04
5.186323544043167566e-04
5.203549954541930329e-04
5.203290122495484197e-04
5.191898554667948203e-04
5.190450949389762651e-04
5.212561526091004848e-04
5.191290024832673992e-04
5.204350735908750119e-04
5.178677894385034803e-04
5.172947931259931154e-04
5.158383370805392793e-04
5.213894797792086901e-04
5.165839475797152523e-04
5.168638039100391249e-04
5.172752164331115418e-04
5.179860122798516254e-04
5.185396959274402853e-04
5.183298560801902341e-04
5.186132956084798769e-04
5.139501434422965578e-04
5.205237421991976664e-04
5.182065198559619940e-04
5.144221321304978970e-04
5.136703349896704768e-04
5.151487869268211181e-04
5.140086437464016058e-04
5.185179167550913511e-04
5.197420748571105397e-04
5.210382745173357645e-04
5.165348308504646253e-04
5.162331207365602375e-04
5.164513110484940557e-04
5.152732735190617948e-04
5.162394455471900050e-04
5.142753677855481289e-04
5.176480971626785119e-04
5.152127069989933389e-04
5.174503255519120621e-04
5.163215493075501081e-04
5.150849460746060975e-04
5.163494363524107327e-04
5.162435965712510550e-04
5.145876033661385711e-04
5.163269374225369504e-04
5.164637166254736891e-04
5.149779210291289535e-04
5.155217204983673614e-04
5.157691686226523143e-04
5.137255165688927282e-04
5.173681943507937430e-04
5.123273512898237573e-04
5.116582583254347324e-04
5.132323044473701681e-04
5.153843471261259366e-04
5.156923198903477128e-04
5.133565397646170855e-04
5.148931954022011384e-04
5.165697301831164790e-04
5.121851294713525467e-04
5.148536810893146248e-04
5.143884562506545076e-04
5.151431119444428892e-04
5.163382898267889539e-04
5.127746769485841231e-04
5.135266172388697594e-04
5.123929489675259482e-04
5.136904772589253286e-04
5.142919357107968766e-04
5.153143280639175096e-04
5.128150206771691939e-04
5.138276357176434694e-04
5.155692737594812398e-04
5.135546943875783036e-04
5.132963776963328680e-04
5.109562920647067481e-04
5.131861841528253696e-04
5.129671399987836399e-04
5.124596541283986308e-04
5.115586574978177575e-04
5.121282195374262563e-04
5.117702405401988036e-04
5.123000035073392057e-04
5.108248628585257325e-04
5.114244037792896411e-04
5.134083543067935679e-04
5.118179820449493978e-04
5.117384291609198806e-04
5.128887338575032753e-04
5.112778891594724814e-04
5.102427111350816462e-04
5.106999027544109225e-04
5.103791559731249731e-04
5.116087335434469979e-04
5.109173824810103520e-04
5.128823889270595982e-04
5.121309752850323853e-04
5.109843464842822635e-04
5.115773580881734098e-04
5.103963381693014641e-04
5.107871333715563802e-04
5.104630023355145483e-04
5.104700769660325699e-04
5.113742700823469900e-04
5.097832160818148569e-04
5.102056371564271317e-04
5.094275657228069382e-04
5.111406430028804211e-04
5.086541497641220962e-04
5.076248837571383562e-04
5.109665554894916037e-04
5.091039442972851220e-04
5.117871332448804995e-04
5.102060830016972312e-04
5.103636942088414594e-04
5.097176092207235908e-04
5.083181455019431839e-04
5.103421824670942774e-04
5.086185890363024422e-04
5.088666261132860713e-04
5.096215686362982368e-04
5.091926480028674019e-04
5.079256512292006651e-04
5.092374407290852292e-04
5.090882117507153663e-04
5.096092745748353678e-04
5.094127303763576952e-04
5.089173301804125315e-04
5.073432055173242392e-04
5.090847364466219264e-04
5.092739224654724717e-04
5.095641135170443994e-04
5.074346320070716437e-04
5.093213149184733224e-04
5.087420760135467641e-04
5.076041650637350740e-04
5.077209465501853706e-04
5.074744494114217597e-04
5.081198973324272403e-04
5.075006917956448880e-04
5.071745196464067353e-04
5.073207154544216333e-04
5.078782903275386130e-04
5.080485635012700445e-04
5.080136771370234033e-04
5.069756828518331331e-04
5.093996695246582685e-04
5.049428125046216123e-04
5.067939210291360535e-04
5.077979918129740247e-04
5.071995343842507784e-04
5.062290372785076134e-04
5.054534804142280392e-04
5.075366918394698824e-04
5.066937641832546619e-04
5.069144990531701186e-04
5.078113090236731266e-04
5.077134368125765839e-04
5.067349313843834673e-04
5.052259325584770432e-04
5.062109057417039622e-04
5.057743202664967668e-04
5.062200116063595790e-04
5.058139153343344007e-04
5.048500586601828780e-04
5.059605790287176200e-04
5.053767290741068398e-04
5.058396596168492120e-04
5.059577854311820286e-04
5.057457020426469338e-04
5.044444376563832991e-04
5.044446985426457621e-04
5.059791415321609250e-04
5.043983720290870932e-04
5.050563786681279248e-04
5.048689279852081047e-04
5.046477789550492211e-04
5.052968464440695884e-04
5.050824593299255627e-04
5.039006323363697318e-04
5.046481207449211252e-04
5.044495729105932282e-04
5.043354290952429143e-04
5.040940962306150177e-04
5.046838657059683026e-04
5.039192364770138854e-04
5.053701577162231055e-04
5.039044595006426193e-04
5.031288361642630852e-04
5.038625246945915891e-04
5.038356420864269995e-04
5.036710934685951916e-04
5.024972979834842115e-04
5.035344496619593947e-04
5.032411846044029195e-04
5.031165316916791407e-04
5.030397832920352301e-04
5.024944941444653944e-04
5.032558967143316731e-04
5.031155004799063753e-04
5.023277401198345633e-04
5.025189504910634354e-04
5.029708603100366878e-04
5.027607159042054826e-04
5.031508530218342179e-04
5.024423954418078507e-04
5.031376206776728499e-04
5.021097151487190387e-04
5.032230086769785317e-04
5.020633792870146314e-04
5.023049404805954949e-04
5.027297317110546388e-04
5.020411669579126100e-04
5.017162875141803566e-04
5.018593293965035703e-04
5.017544037712866768e-04
5.023737578936294428e-04
5.015082801228297818e-04
5.014174834194754437e-04
5.014899973847920887e-04
5.016717769734932225e-04
5.015491971249071146e-04
5.014160790345969804e-04
5.019915014606897300e-04
5.015489649744259842e-04
5.014959562521821698e-04
5.008220585681492963e-04
5.014788086558324802e-04
5.005919583891298760e-04
5.011956626829638028e-04
5.010304775563549943e-04
5.010613472146358601e-04
5.012740757703896492e-04
5.006393411433478257e-04
5.004437229078497308e-04
5.011544090009097119e-04
4.999850095023975578e-04
5.005425922746597426e-04
5.008005705433971706e-04
5.004203108371836932e-04
5.000970880684911047e-04
5.003504775950949742e-04
4.996377001532122499e-04
5.004550820673153103e-04
4.994989896720787928e-04
4.993639476760459908e-04
4.996918049950139227e-04
4.996016111307029174e-04
4.994471286832404726e-04
4.993175803337058854e-04
4.994705067233253144e-04
4.991423551775653637e-04
4.991064474301778976e-04
4.990956507327317694e-04
4.986944587627001844e-04
4.986148118125851257e-04
4.991972061654095577e-04
4.991204957960447683e-04
4.985045797331928577e-04
4.991128618274460116e-04
4.991947609449721860e-04
4.983700291310799680e-04
4.984630562272614413e-04
4.979844664232904337e-04
4.983620682639153775e-04
4.985510419927432308e-04
4.984071228324369034e-04
4.982235361670921733e-04
4.977962491554862841e-04
4.979909782881852907e-04
4.984958916738879958e-04
4.978135084107054072e-04
4.976946505806454767e-04
4.976405122837342446e-04
4.977733779051127672e-04
4.977982599473645573e-04
4.976581568053563493e-04
4.977133300295426450e-04
4.969762710925134481e-04
4.973014340194837788e-04
4.970794449969038976e-04
4.969948013240667317e-04
4.973045277797989846e-04
4.969784081719750852e-04
4.969906360140061066e-04
4.974388036436272345e-04
4.969537960354350080e-04
4.967735500979730823e-04
4.968657115763904560e-04
4.968647778071572964e-04
4.968334005914053350e-04
4.964649125618941696e-04
4.965055227232851795e-04
4.962724589423337567e-04
4.964223077583366627e-04
4.963360960063527153e-04
4.962785424219756701e-04
4.960983569057187846e-04
4.957838034966885292e-04
4.957850420761694774e-04
4.959946486459642333e-04
4.957681783224691507e-04
4.957930759102518407e-04
4.956165342318898928e-04
4.957549337367857505e-04
4.953949194110220545e-04
4.953113710637845318e-04
4.958857421387288886e-04
4.952469321774415414e-04
4.954432666337009374e-04
4.953437468009443036e-04
4.951286575597955205e-04
4.952667970812026478e-04
4.950841888501283710e-04
4.947905282036818000e-04
4.953018035740197915e-04
4.946065528290407654e-04
4.946513987353315682e-04
4.949590586874511684e-04
4.950334177042901851e-04
4.945243187907131036e-04
4.945237001915629010e-04
4.948039890173273848e-04
4.944003409349095185e-04
4.944243792851968182e-04
4.943309785777577452e-04
4.945466518364739078e-04
4.942533318802427422e-04
4.944601934456562551e-04
4.939784365528503531e-04
4.941161461791541325e-04
4.939032079295613362e-04
4.937305485225656435e-04
4.936916859299139834e-04
4.939892001530917084e-04
4.939444630586604934e-04
4.935146799631425591e-04
4.935041404708877125e-04
4.935466433133414883e-04
4.932270275523740642e-04
4.934251690092776284e-04
4.932859668886281808e-04
4.930136709581558335e-04
4.930248920439762308e-04
4.931313786665707070e-04
4.928263146897668943e-04
4.931231756811961953e-04
4.929519625063162299e-04
4.928123344310602347e-04
4.926451668319202374e-04
4.927376565862043875e-04
4.928340228202395586e-04
4.923500087110823254e-04
4.924018471905367489e-04
4.925079446554326461e-04
4.924254249703707452e-04
4.923196015857658628e-04
4.921546654386353649e-04
4.922902458144876254e-04
4.925061828966985225e-04
4.919596317590293512e-04
4.920651277212135686e-04
4.918546321678058525e-04
4.916042635646747285e-04
4.920020379389006748e-04
4.917040875017037252e-04
4.917981285797108941e-04
4.917049269496661474e-04
4.913800452454672322e-04
4.915382096882140806e-04
4.912915599186556395e-04
4.916127521500327901e-04
4.912303423221552664e-04
4.911267023302769846e-04
4.912584965837833760e-04
4.912401995901343431e-04
4.912883758696173211e-04
4.908755004279379041e-04
4.910294108182900082e-04
4.908661177124680952e-04
4.907023936000427279e-04
4.905814823432398100e-04
4.907834045945699310e-04
4.903984432615442939e-04
4.904088042274160108e-04
4.905237631204391064e-04
4.903528550766238702e-04
4.902689011621845635e-04
4.902810894579624854e-04
4.903221127298317212e-04
4.901879617637163030e-04
4.900959582269170467e-04
4.900335431298183169e-04
4.900331651525016621e-04
4.901046647391664847e-04
4.899513605227114824e-04
4.897356547222248262e-04
4.896803029788770545e-04
4.895632219732764991e-04
4.894198865831127492e-04
4.894633705054963861e-04
4.893878939402047197e-04
4.893940469425017356e-04
4.894929753956142214e-04
4.893977882464635746e-04
4.891728276165835127e-04
4.892683092775410286e-04
4.890649531227018489e-04
4.892013814495233155e-04
4.889425368030414932e-04
4.888935848169565900e-04
4.887528313065725829e-04
4.890241969521119669e-04
4.888005109741008769e-04
4.884615467422168599e-04
4.887109498712948483e-04
4.885099141721212842e-04
4.885041073920232905e-04
4.883861308220597240e-04
4.885316662737390365e-04
4.884481568432101281e-04
4.882710485947257652e-04
4.881996435664201863e-04
4.883410557439370192e-04
4.881377799365278834e-04
4.881202302254157533e-04
4.881349878711636003e-04
4.878242175467781554e-04
4.880132123482562524e-04
4.879351118365701659e-04
4.877745820462288774e-04
4.877505602730544156e-04
4.875801452807517746e-04
4.875457614548531996e-04
4.876983749541274307e-04
4.875937675141499782e-04
4.875652233019703101e-04
4.873409541941872117e-04
4.872878414035693617e-04
4.873864661905164463e-04
4.870887343062975665e-04
4.870788963990257546e-04
4.870159918573027636e-04
4.871130727150748026e-04
4.869783324759385974e-04
4.868783907839327701e-04
4.869651845613975341e-04
4.868200584675465097e-04
4.867304081141223004e-04
4.867992744069447571e-04
4.866277400996666118e-04
4.865688981215818189e-04
4.864149880235219469e-04
4.864852325822732531e-04
4.864393844568854039e-04
4.862888082945356094e-04
4.863982464031922572e-04
4.862483651667825514e-04
4.861846985448258981e-04
4.861472463988358297e-04
4.861409782356770101e-04
4.860700004923978568e-04
4.859353501199280604e-04
4.858935390481505627e-04
4.858360758479643719e-04
4.857725964733203717e-04
4.856823541712217856e-04
4.856089550903823818e-04
4.856679446785111000e-04
4.855675796125159230e-04
4.855743563410911388e-04
4.854186096365152537e-04
4.853669114326096025e-04
4.854549542917880245e-04
4.852210260211697380e-04
4.852636060983820331e-04
4.851808268839547401e-04
4.850413428954301149e-04
4.850271442960868147e-04
4.849653496417597343e-04
4.850455694447558096e-04
4.849320423083916380e-04
4.848459913020221551e-04
4.847467108120802402e-04
4.847372859065774971e-04
4.846256622817235243e-04
4.845970094402035242e-04
4.845834646389573738e-04
4.844848987859351952e-04
4.844190809038063711e-04
4.844163143036902706e-04
4.843627144328083861e-04
4.841742223748845414e-04
4.842942483784457627e-04
4.840968735071052385e-04
4.841363439213472670e-04
4.840867541537267719e-04
4.840123465607720776e-04
4.839644631519964945e-04
4.838794024606085068e-04
4.838331317877359169e-04
4.838337047838368421e-04
4.837957432225798598e-04
4.837050090609112192e-04
4.836612815227176029e-04
4.835802485028748549e-04
4.834867729115831909e-04
4.833938528209393948e-04
4.833802744809062623e-04
4.833838870299937717e-04
4.833186931703898986e-04
4.832895919754005300e-04
4.832423085154831182e-04
4.831280528676170087e-04
4.830935462256466680e-04
4.831111144236100623e-04
4.829582471226458260e-04
4.829067980714900929e-04
4.828669171398314547e-04
4.828455250875331086e-04
4.827616896089436337e-04
4.827682711018591792e-04
4.826803351443633588e-04
4.826757188625991225e-04
4.825753970685134927e-04
4.825521784137161169e-04
4.824776179405994422e-04
4.824194391695799783e-04
4.823941484620900368e-04
4.823344565851171608e-04
4.822596596807162132e-04
4.822906094078358453e-04
4.821506497350480278e-04
4.820972030141347617e-04
4.820728327252331172e-04
4.820153353358302560e-04
4.819168698234264328e-04
4.819006217165382275e-04
4.819021927604585638e-04
4.817998525979968008e-04
4.818365355912053644e-04
4.817175839270459808e-04
4.816823655631887022e-04
4.815532225428547654e-04
4.815253133365201502e-04
4.815371655801163305e-04
4.814941595313589431e-04
4.814061541381083422e-04
4.813558577444179069e-04
4.812925406425121763e-04
4.812547033132537973e-04
4.811818385636563522e-04
4.811560033272512340e-04
4.811243781746810610e-04
4.810319365398501570e-04
4.809825995554435651e-04
4.809162810825880468e-04
4.809527180266221945e-04
4.808242326356975196e-04
4.807828136851576830e-04
4.807301498988318048e-04
4.806899147055898819e-04
4.806653222825225751e-04
4.805862004967890620e-04
4.805896889939076247e-04
4.805049949625955817e-04
4.804327183847266350e-04
4.803700813753039394e-04
4.803391732040360575e-04
4.802719331123838525e-04
4.802682508308805378e-04
4.802031588390470685e-04
4.801624561281608644e-04
4.801310256937906971e-04
4.800806947442091271e-04
4.799758033924317346e-04
4.799726851403014857e-04
4.799057947505626495e-04
4.798386334300871461e-04
4.797627878498647797e-04
4.797448056798505191e-04
4.797225917145592124e-04
4.796323815122773004e-04
4.796090959877346693e-04
4.795725395020331580e-04
4.794912267262180076e-04
4.794787635720808142e-04
4.794259452939277815e-04
4.793938256477236343e-04
4.793139444569958834e-04
4.792498891934158438e-04
4.791982797727354303e-04
4.791809237322864658e-04
4.791151886789224846e-04
4.790504714856637868e-04
4.790400681543367963e-04
4.789805397656239595e-04
4.788962752758420282e-04
4.788679529116627253e-04
4.788302441352422631e-04
4.787918854233767113e-04
4.787573989722497254e-04
4.786877347105176236e-04
4.786307667634428489e-04
4.786065990722623560e-04
4.785353988679755255e-04
4.785009180606431618e-04
4.784427026670770144e-04
4.784129346444092844e-04
4.783809905937334351e-04
4.783163926010311723e-04
4.782370484307201636e-04
4.782432999283245758e-04
4.781687604000677883e-04
4.781173096345182373e-04
4.780957823361924063e-04
4.780214384315057503e-04
4.779789838586243414e-04
4.779318476773278149e-04
4.779061911986068074e-04
4.778051479762492927e-04
4.777835983335590930e-04
4.777360332148844371e-04
4.777176980926671219e-04
4.776555199791442216e-04
4.776082805841957144e-04
4.775667704191425590e-04
4.775136865960167426e-04
4.774682616413133680e-04
4.774201175427744974e-04
4.773984578346678271e-04
4.773325015817624149e-04
4.772948417947445480e-04
4.772392439227848187e-04
4.772051220254943868e-04
4.771742805788756398e-04
4.771178650839725480e-04
4.770589543264249985e-04
4.770230887941359741e-04
4.769813494671744565e-04
4.769254924262373240e-04
4.768773272217511142e-04
4.768310532184977940e-04
4.767493684054721430e-04
4.767477322031946898e-04
4.766998465951083862e-04
4.766522405161156936e-04
4.766069979110736771e-04
4.765352915400384117e-04
4.765235649095713962e-04
4.764692386582457619e-04
4.764195009055128757e-04
4.763758320501903761e-04
4.763557971021684795e-04
4.762854851805777457e-04
4.762662334575763876e-04
4.761964160925744776e-04
4.761667983381537034e-04
4.761140754006578605e-04
4.760992099715834788e-04
4.760185808536912446e-04
4.759950216075613878e-04
4.759392395105543861e-04
4.759023070691568297e-04
4.758395755633929350e-04
4.758177649182703949e-04
4.757681252075203525e-04
4.757320718471642635e-04
4.756752767544857041e-04
4.756405910196009825e-04
4.755854666000414220e-04
4.755401776672668482e-04
4.755092743657223517e-04
4.754635155856002261e-04
4.754117028813934615e-04
4.753714019747137007e-04
4.753385761068102690e-04
4.752620093385821038e-04
4.752359166072165188e-04
4.752136710509726478e-04
4.751436416322424284e-04
4.750988607100053540e-04
4.750632978775392733e-04
4.750136555363595027e-04
4.749725277320133001e-04
4.749363739974525492e-04
4.748971334032822396e-04
4.748581255957597439e-04
4.748220465891926970e-04
4.747717176484515409e-04
4.747318716750157969e-04
4.746736534288470552e-04
4.746470109079873202e-04
4.746084200414956247e-04
4.745562452344872324e-04
4.745280216138041650e-04
4.744706552273308909e-04
4.744341122198249359e-04
4.743944347649382419e-04
4.743458483930102355e-04
4.742999975567823703e-04
4.742769134015596124e-04
4.742113504525351459e-04
4.741893356379564160e-04
4.741395654669461573e-04
4.740934149294003300e-04
4.740586834635308541e-04
4.740099279954148410e-04
4.739758791816208036e-04
4.739315705080650786e-04
4.738950531243179350e-04
4.738562590182090464e-04
4.738049102512496250e-04
4.737661845424644027e-04
4.737237691825654643e-04
4.736805102792495509e-04
4.736406989666376056e-04
4.735919119695993244e-04
4.735560847255158054e-04
4.735247943195150175e-04
4.734717151433081726e-04
4.734411292738766605e-04
4.734001579088252445e-04
4.733655391519610918e-04
4.733182130758797185e-04
4.732707981899139313e-04
4.732348986666881597e-04
4.731916822741483414e-04
4.731523178343340053e-04
4.731174578567537078e-04
4.730808636434404176e-04
4.730458711914177885e-04
4.729994280111587848e-04
4.729588407919505964e-04
4.729137166178606368e-04
4.728671521342675023e-04
4.728422462717396654e-04
4.727993574003039432e-04
4.727564725113913538e-04
4.727172764599407630e-04
4.726765149304648574e-04
4.726396904075070020e-04
4.725942976869738216e-04
4.725448549997059980e-04
4.725237188860762394e-04
4.724852152966102113e-04
4.724368886916771744e-04
4.723985493337939066e-04
4.723665988918354262e-04
4.723247427913082109e-04
4.722817200653723051e-04
4.722483676551164568e-04
4.722059572730340172e-04
4.721629172261390455e-04
4.721288794185031783e-04
4.720835827277336202e-04
4.720425814415384622e-04
4.720160233288315035e-04
4.719678093915309061e-04
4.719293353814178423e-04
4.718978628733344009e-04
4.718635591673880024e-04
4.718174380188051723e-04
4.717769507801798786e-04
4.717371285100011025e-04
4.717070409901765056e-04
4.716706649241147803e-04
4.716291789989939518e-04
4.715994547619217054e-04
4.715519898231630073e-04
4.715087546495176662e-04
4.714783203653654764e-04
4.714400962429826040e-04
4.714002356851391766e-04
4.713607008669754993e-04
4.713223261893939478e-04
4.712870993185409429e-04
4.712500263230237196e-04
4.712147627891774895e-04
4.711756786612462337e-04
4.711330013501593408e-04
4.710962116208679143e-04
4.710614925450697208e-04
4.710248545807395695e-04
4.709925091821214808e-04
4.709538498236034445e-04
4.709112588560022440e-04
4.708733443655245023e-04
4.708390416107704622e-04
4.708036730326495755e-04
4.707703320359349006e-04
4.707334655497338893e-04
4.706915302097233723e-04
4.706551559151308487e-04
4.706154043020500293e-04
4.705862923495271791e-04
4.705482447930913912e-04
4.705096140611561757e-04
4.704753187072502991e-04
4.704378095115945664e-04
4.704007566636674823e-04
4.703683564657457354e-04
4.703284537642620595e-04
4.702938906019402772e-04
4.702617817964698768e-04
4.702245129949389978e-04
4.701821319940889770e-04
4.701496425367605609e-04
4.701128848113189001e-04
4.700780199361906321e-04
4.700429402050356766e-04
4.699989692206720448e-04
4.699686981093139249e-04
4.699327613703825385e-04
4.699012153014206256e-04
4.698643307731939500e-04
4.698304936732182100e-04
4.697930615903928670e-04
4.697556117774968031e-04
4.697198421710991408e-04
4.696849373718087520e-04
4.696511824455911529e-04
4.696156088072534667e-04
4.695849668856580134e-04
4.695460251639794547e-04
4.695111237147558177e-04
4.694778647462359263e-04
4.694427528203343734e-04
4.694074386778712910e-04
4.693740907145952821e-04
4.693376072585831089e-04
4.693011427161429788e-04
4.692684481098651937e-04
4.692375540026634127e-04
4.692002991854999088e-04
4.691655940133937692e-04
4.691321569920786053e-04
4.690973156570238736e-04
4.690624000806438692e-04
4.690302856814952247e-04
4.689943345749502399e-04
4.689592142581430951e-04
4.689261273498539044e-04
4.688929875683510939e-04
4.688573299396672626e-04
4.688236693451478237e-04
4.687918575586611587e-04
4.687571527709419317e-04
4.687253772213494487e-04
4.686899915731873806e-04
4.686544932432850719e-04
4.686216612263409452e-04
4.685887612978933579e-04
4.685561530358718077e-04
4.685230076497154828e-04
4.684886950970394747e-04
4.684556410853341242e-04
4.684231482029025707e-04
4.683887717793878773e-04
4.683580765123438144e-04
4.683236136906304128e-04
4.682918135876658447e-04
4.682566772265980533e-04
4.682268694549432896e-04
4.681923628236443172e-04
4.681581409124739492e-04
4.681244483071478530e-04
4.680942546271220752e-04
4.680619194266082291e-04
4.680284137255598864e-04
4.679973009432639598e-04
4.679632382676606524e-04
4.679314540158789723e-04
4.678995682884503965e-04
4.678671205614567713e-04
4.678352416575176143e-04
4.678022052978408657e-04
4.677697867966960866e-04
4.677385084673556627e-04
4.677065995621034400e-04
4.676731556370543439e-04
4.676419789645184220e-04
4.676114776597853069e-04
4.675795746992640113e-04
4.675470110492127747e-04
4.675164544022314059e-04
4.674842187874952266e-04
4.674528420851577714e-04
4.674220559269739333e-04
4.673901070944169755e-04
4.673576613989160002e-04
4.673270811939719219e-04
4.672952739903584005e-04
4.672651222423528702e-04
4.672328945155337357e-04
4.672010764315681478e-04
4.671700314363598505e-04
4.671393310336254662e-04
4.671087156105546332e-04
4.670769466216654112e-04
4.670468796028340243e-04
4.670171375950130381e-04
4.669855242807344426e-04
4.669547206146847334e-04
4.669233239999926355e-04
4.668926441122535527e-04
4.668624255897252623e-04
4.668327114376162081e-04
4.668013719681161715e-04
4.667720739878281348e-04
4.667418820568215807e-04
4.667113000115114267e-04
4.666805925547703581e-04
4.666510277309344665e-04
4.666202345709686075e-04
4.665904078901120028e-04
4.665605853295607319e-04
4.665301767157212600e-04
4.665009491160845086e-04
4.664710675047397943e-04
4.664403593818175313e-04
4.664114773775201268e-04
4.663811067025113344e-04
4.663521067369190095e-04
4.663219278282985220e-04
4.662917102311472483e-04
4.662622367429294619e-04
4.662331901055569812e-04
4.662049175725807527e-04
4.661734775809223022e-04
4.661447957759726657e-04
4.661154331955012992e-04
4.660873211354868667e-04
4.660583660924612391e-04
4.660290149705342724e-04
4.659999926855439359e-04
4.659705109694374015e-04
4.659419178119304501e-04
4.659135268869694208e-04
4.658831464473857376e-04
4.658549929267683421e-04
4.658265395701673226e-04
4.657979724431497671e-04
4.657690864864230500e-04
4.657403980542937057e-04
4.657128981461592949e-04
4.656836425949198140e-04
4.656559854279150893e-04
4.656272328825945893e-04
4.655987294649560604e-04
4.655703691319508660e-04
4.655425050730903889e-04
4.655142216996338458e-04
4.654862541480747997e-04
4.654581821564748824e-04
4.654300143248630943e-04
4.654020948322342560e-04
4.653749747717743183e-04
4.653463169163459760e-04
4.653187638760959417e-04
4.652915913679864820e-04
4.652628969104389634e-04
4.652364383757093247e-04
4.652078648071725762e-04
4.651806605601240029e-04
4.651534705997462885e-04
4.651256619964191518e-04
4.650981817746913799e-04
4.650710063156393700e-04
4.650436469238819763e-04
4.650166366804412321e-04
4.649894370822925762e-04
4.649622562107196574e-04
4.649357296524705301e-04
4.649085335393948900e-04
4.648815116536520603e-04
4.648550559938558402e-04
4.648276338720807059e-04
4.648014023325738701e-04
4.647743224188350579e-04
4.647479167307339682e-04
4.647213580634070203e-04
4.646947311998486413e-04
4.646681623619071800e-04
4.646416070948902678e-04
4.646149915686941445e-04
4.645888042242860613e-04
4.645623408963995031e-04
4.645363994138076774e-04
4.645106072968965914e-04
4.644838815390668054e-04
4.644579395309176260e-04
4.644315951565647772e-04
4.644060289637392288e-04
4.643794720956499603e-04
4.643539630237264416e-04
4.643280507386571081e-04
4.643024180686566665e-04
4.642762870422095659e-04
4.642508679070584321e-04
4.642250063750861903e-04
4.641996735330147263e-04
4.641738305443213761e-04
4.641485822050053995e-04
4.641231232495937869e-04
4.640977372736631397e-04
4.640727648965653008e-04
4.640472872794677221e-04
4.640220537184572779e-04
4.639967529588123730e-04
4.639717385831029686e-04
4.639468677751911884e-04
4.639216608115764168e-04
4.638968700133597948e-04
4.638717238559256976e-04
4.638469887822907630e-04
4.638219007476546358e-04
4.637974650050956859e-04
4.637727779337543518e-04
4.637479095067695159e-04
4.637234845940662958e-04
4.636988981389172601e-04
4.636743855671333079e-04
4.636498328549494541e-04
4.636253348371915093e-04
4.636011647323920698e-04
4.635767119853205758e-04
4.635525856807761174e-04
4.635284936436687999e-04
4.635042017720406439e-04
4.634801957330654987e-04
4.634561611372097520e-04
4.634321030161211367e-04
4.634080320405732710e-04
4.633841868031010440e-04
4.633605382770623633e-04
4.633365796784697324e-04
4.633130722053654124e-04
4.632894701242748253e-04
4.632657069838360883e-04
4.632421175974236007e-04
4.632184509953709813e-04
4.631951260627783932e-04
4.631718415483372154e-04
4.631483079307589399e-04
4.631249409349031060e-04
4.631015799823966867e-04
4.630783802615253525e-04
4.630553109403138926e-04
4.630321619774292936e-04
4.630092013215936306e-04
4.629860057826683728e-04
4.629631375207846284e-04
4.629401856635798431e-04
4.629173110055402498e-04
4.628944953084519038e-04
4.628716710418276890e-04
4.628490668196484875e-04
4.628263546863929981e-04
4.628037178445286318e-04
4.627811817696683813e-04
4.627587127001293443e-04
4.627362078344619844e-04
4.627139796573155150e-04
4.626914097448147300e-04
4.626691842498523795e-04
4.626469589494101560e-04
4.626248120405798193e-04
4.626026083950071166e-04
4.625805161919484309e-04
4.625584880253306628e-04
4.625365111865252293e-04
4.625145907869962253e-04
4.624926583030260804e-04
4.624708031474838305e-04
4.624489865913313240e-04
4.624272401668405260e-04
4.624055136410110058e-04
4.623839247352998032e-04
4.623622807930510446e-04
4.623407203998333693e-04
4.623193219781400486e-04
4.622978055865926820e-04
4.622763867522972515e-04
4.622550402247346335e-04
4.622338046432675337e-04
4.622125291882110318e-04
4.621913516803718156e-04
4.621701590436586970e-04
4.621491406959233597e-04
4.621280755586491449e-04
4.621071838270521715e-04
4.620861883362576208e-04
4.620653219758741868e-04
4.620444867722518973e-04
4.620237049115469849e-04
4.620029118747347781e-04
4.619822367918254556e-04
4.619616803649906280e-04
4.619410786010494981e-04
4.619204997206037056e-04
4.619000858377933678e-04
4.618796676379224864e-04
4.618592793749675069e-04
4.618389346977446104e-04
4.618186418896570028e-04
4.617984128142182195e-04
4.617782773721517049e-04
4.617580505822000965e-04
4.617380253793603459e-04
4.617179942776417165e-04
4.616980346472956899e-04
4.616781119680903782e-04
4.616582236708238231e-04
4.616383793426298457e-04
4.616185838395317443e-04
4.615989066175182226e-04
4.615792193185392343e-04
4.615595530179262152e-04
4.615400151230385391e-04
4.615204944063821938e-04
4.615010549445657277e-04
4.614815654203111798e-04
4.614621917222552533e-04
4.614428567029115781e-04
4.614236030706990411e-04
4.614043814746311288e-04
4.613852027446593059e-04
4.613660747811889457e-04
4.613470114591757031e-04
4.613279963613674717e-04
4.613090095768553381e-04
4.612900827576306602e-04
4.612712041019787217e-04
4.612523898898040304e-04
4.612336359427605492e-04
4.612149106993866090e-04
4.611962139768067395e-04
4.611776058815094119e-04
4.611590262544474489e-04
4.611405143730648321e-04
4.611220526352762992e-04
4.611036136066094587e-04
4.610852598377173359e-04
4.610668945718957739e-04
4.610486365618506836e-04
4.610304032525783247e-04
4.610122415648675118e-04
4.609941246984287726e-04
4.609760447601655574e-04
4.609580153366810086e-04
4.609400387365774373e-04
4.609221373981120420e-04
4.609042380818259999e-04
4.608864282961766599e-04
4.608686548533713644e-04
4.608508990865016540e-04
4.608332619991082377e-04
4.608156171105842573e-04
4.607980455383964605e-04
4.607805381835676332e-04
4.607630601874420999e-04
4.607456349427831188e-04
4.607282416373157177e-04
4.607109279424482758e-04
4.606936496495678398e-04
4.606764330384394493e-04
4.606592464530594937e-04
4.606421324357212288e-04
4.606250515900713960e-04
4.606080103270133791e-04
4.605910446070633725e-04
4.605741034604354757e-04
4.605572321632942878e-04
4.605404037483307807e-04
4.605236098832414656e-04
4.605068936058503526e-04
4.604902197808367903e-04
4.604735861317156261e-04
4.604570091356382090e-04
4.604404836658547657e-04
4.604239877978396787e-04
4.604075591527653473e-04
4.603911803031373196e-04
4.603748447395450720e-04
4.603585639394163365e-04
4.603423309612594068e-04
4.603261504155369563e-04
4.603100139257900077e-04
4.602939357392489095e-04
4.602778963110943939e-04
4.602619100266699633e-04
4.602459732156714313e-04
4.602300865921744063e-04
4.602142547376474480e-04
4.601984642278620307e-04
4.601827235345523734e-04
4.601670345353846303e-04
4.601513966816469007e-04
4.601358030480114146e-04
4.601202683726530454e-04
4.601047785104847815e-04
4.600893350066246603e-04
4.600739424023998487e-04
4.600586021632917287e-04
4.600433082000258164e-04
4.600280644671631285e-04
4.600128682843997695e-04
4.599977253110049081e-04
4.599826298370090463e-04
4.599675836884555696e-04
4.599525874518315001e-04
4.599376428939553544e-04
4.599227405125636274e-04
4.599078945417951433e-04
4.598930956685753934e-04
4.598783436367560851e-04
4.598636437691587748e-04
4.598489909732958328e-04
4.598343889069527054e-04
4.598198367282098679e-04
4.598053326311917757e-04
4.597908817129224145e-04
4.597764757996494734e-04
4.597621220319406034e-04
4.597478118364882135e-04
4.597335574718427608e-04
4.597193493498801680e-04
4.597051902895998095e-04
4.596910826755660736e-04
4.596770204249203511e-04
4.596630095951816574e-04
4.596490451711548108e-04
4.596351353166894531e-04
4.596212697091215825e-04
4.596074542042475155e-04
4.595936902825420120e-04
4.595799746977851557e-04
4.595663109264160810e-04
4.595526899217725514e-04
4.595391209740286656e-04
4.595256034877878075e-04
4.595121309545117483e-04
4.594987113632239932e-04
4.594853403210310498e-04
4.594720157581238043e-04
4.594587429171025561e-04
4.594455184083233250e-04
4.594323438970667633e-04
4.594192174218005888e-04
4.594061394101050817e-04
4.593931102814945459e-04
4.593801307123516510e-04
4.593672010616396358e-04
4.593543187736565938e-04
4.593414883539775830e-04
4.593287041201704309e-04
4.593159685647463263e-04
4.593032849770421712e-04
4.592906477407169685e-04
4.592780609327028695e-04
4.592655220249590550e-04
4.592530325480109060e-04
4.592405930108153941e-04
4.592282014253405470e-04
4.592158585362422210e-04
4.592035663855655514e-04
4.591913212839131178e-04
4.591791262648200404e-04
4.591669797236197243e-04
4.591548814948875294e-04
4.591428331940280430e-04
4.591308332363136361e-04
4.591188821242836709e-04
4.591069805281588622e-04
4.590951274272029258e-04
4.590833232603194411e-04
4.590715680760158843e-04
4.590598615375330433e-04
4.590482041700813271e-04
4.590365959118704819e-04
4.590250353129198555e-04
4.590135246525043071e-04
4.590020627478380339e-04
4.589906494869249029e-04
4.589792851447175009e-04
4.589679690434542701e-04
4.589567029697370014e-04
4.589454849938437420e-04
4.589343153726350511e-04
4.589231953537893215e-04
4.589121239653252689e-04
4.589011015494938602e-04
4.588901273647130611e-04
4.588792021484879263e-04
4.588683258642672902e-04
4.588574985924880577e-04
4.588467195687472564e-04
4.588359892284540821e-04
4.588253078458597511e-04
4.588146757528325853e-04
4.588040917158254660e-04
4.587935567206973030e-04
4.587830702707748642e-04
4.587726330033273041e-04
4.587622437755319157e-04
4.587519036928081658e-04
4.587416121875108940e-04
4.587313693813024917e-04
4.587211752416834026e-04
4.587110300022021587e-04
4.587009332237784558e-04
4.586908853087618885e-04
4.586808859900819656e-04
4.586709352458213235e-04
4.586610333117016689e-04
4.586511799498100683e-04
4.586413753215347854e-04
4.586316192809115249e-04
4.586219118868930210e-04
4.586122531238332064e-04
4.586026429555223305e-04
4.585930815188537114e-04
4.585835687127899521e-04
4.585741044496515688e-04
4.585646888004987981e-04
4.585553218179449358e-04
4.585460034692657788e-04
4.585367336383705961e-04
4.585275125070796044e-04
4.585183398628884187e-04
4.585092158316851087e-04
4.585001403089556207e-04
4.584911133997336121e-04
4.584821351706024864e-04
4.584732053683945852e-04
4.584643242059367350e-04
4.584554915928118956e-04
4.584467074682521074e-04
4.584379719850139212e-04
4.584292850726016445e-04
4.584206465630475324e-04
4.584120565961860181e-04
4.584035152222862980e-04
4.583950223200178547e-04
4.583865780408394493e-04
4.583781821723376614e-04
4.583698348092699721e-04
4.583615360329763725e-04
4.583532856651729884e-04
4.583450838321733844e-04
4.583369305164265500e-04
4.583288256670267537e-04
4.583207692988231744e-04
4.583127614254470521e-04
4.583048020129523422e-04
4.582968910607942330e-04
4.582890286035149721e-04
4.582812145814717307e-04
4.582734490164116527e-04
4.582657319293171401e-04
4.582580632610362367e-04
4.582504430528960729e-04
4.582428712798719615e-04
4.582353479499881913e-04
