1.550750960833037873e-06
1.629532250140913879e-05
7.886325052525983256e-05
2.328964281372206504e-04
4.687907637907895832e-04
7.058457659861836365e-04
1.000906849916001701e-03
1.873454958545583277e-03
4.038633979994791720e-03
7.199646432879155782e-03
9.386746552955110151e-03
8.664534631725643796e-03
5.691439728706728166e-03
3.346810322506018828e-03
3.336895303259768738e-03
4.332698915338152774e-03
4.113304882597273830e-03
2.446867484516605795e-03
9.501249269354997097e-04
8.809296961072640838e-04
1.963290324818761211e-03
3.028303957436681137e-03
3.311106669380794142e-03
3.235905504451191614e-03
3.852971669475992178e-03
5.332818918866197994e-03
6.512213460276263487e-03
6.348933781249259042e-03
5.294181764791300836e-03
4.655190101247431468e-03
4.974599739477707921e-03
5.694150562777081266e-03
6.328288120710428254e-03
7.245666372975865036e-03
8.824868810932877741e-03
1.023046173860288864e-02
9.903770463089694304e-03
7.556908735296034331e-03
4.988176915148097475e-03
4.263479344856884942e-03
5.427365023954593484e-03
6.672006770894159562e-03
6.536924538989467154e-03
5.159263873955250920e-03
3.410547162869642136e-03
1.770679749913683498e-03
4.457350999848870153e-04
-2.029559574462574739e-04
-9.356896523199527936e-05
3.210657773573800076e-06
-9.945037886583704776e-04
-3.245769255739762178e-03
-5.725641221778060390e-03
-7.412731445127176098e-03
-8.308059447036480333e-03
-8.937049999377222331e-03
-9.339890657105864510e-03
-9.107047022570664147e-03
-8.077813581235472606e-03
-6.494550998665582497e-03
-4.672856932325085595e-03
-2.795153814122764303e-03
-7.838916805128538518e-04
1.631951614262857134e-03
4.284058129883255503e-03
6.141314781220062746e-03
6.222135736117915053e-03
4.933592647365861103e-03
3.824691121896003562e-03
3.890025818048987137e-03
4.657735512794910354e-03
5.087808109879247281e-03
4.810603413626578402e-03
4.102632508663901952e-03
3.088994656557235517e-03
1.686711912835882864e-03
2.847300132781303513e-04
-2.841893320656290215e-04
2.519374406797322179e-04
1.203284394404473268e-03
1.980061025803675143e-03
3.150151746053307146e-03
5.747816074140408432e-03
9.533394213907800049e-03
1.260607513342837903e-02
1.312920337042351032e-02
1.115912118375666194e-02
8.420535827605385090e-03
6.387158398099514710e-03
5.003754843105980878e-03
3.498173741902825887e-03
2.071286571696806522e-03
2.075608535333302480e-03
4.232975196402168766e-03
7.285865002981783099e-03
9.235580607093379218e-03
9.637743583982939094e-03
9.600701255621282501e-03
9.605744657524464825e-03
8.775783677438194624e-03
6.734300430487050876e-03
4.797340648561177617e-03
4.397713629884601218e-03
5.174116791844009071e-03
5.514177424632003485e-03
4.539889893545632528e-03
2.856440244300663053e-03
1.539375077703947388e-03
8.701688969730782177e-04
1.327080009805815461e-04
-1.373908775736400320e-03
-3.110335151440035521e-03
-3.451034902940313190e-03
-1.524644293884993510e-03
1.428418803637420808e-03
3.330811337994511213e-03
3.743845086581445557e-03
4.074499422713338814e-03
5.306326420960358684e-03
6.714284926950287412e-03
7.153944402455300611e-03
6.524815628249601429e-03
5.467842212401135410e-03
4.486188755836289718e-03
3.860606506202512132e-03
3.810616326618505856e-03
4.274129068290644616e-03
4.830354191596013605e-03
5.127231789615535607e-03
5.239518481951502445e-03
5.450092749764478932e-03
5.755140997633146835e-03
5.700547476519118688e-03
4.839119001166830754e-03
3.520982592900953785e-03
3.020994445273355016e-03
4.264912491323517504e-03
6.343440588836027350e-03
7.011276302414502608e-03
5.109681716484984655e-03
2.134774278833633139e-03
8.954963480648299619e-04
2.528955325780065516e-03
5.168567408888820151e-03
5.855570872417227915e-03
3.534420697990565442e-03
-2.298787521648374505e-04
-3.222759443755388725e-03
-4.582514823619155721e-03
-4.868158324869615618e-03
-4.947086795492242235e-03
-5.210238741876736107e-03
-5.425382355538276198e-03
-5.066923212901025889e-03
-4.042901368977763060e-03
-3.014747140912056242e-03
-2.551814929491213503e-03
-2.145472240625976006e-03
-7.166862649619924665e-04
1.857860760082116194e-03
4.292271081519088635e-03
5.186635338185714011e-03
4.476818320542088996e-03
3.389358196898855161e-03
3.169835636162089340e-03
4.167098961319544090e-03
6.024848065092538313e-03
8.183111959191826518e-03
9.983448040347529806e-03
1.083340150353822792e-02
1.073277175441996432e-02
1.039475096820243784e-02
1.049799806179898057e-02
1.090301762402286732e-02
1.077176127632847001e-02
9.443073722440140441e-03
7.210602316089977960e-03
5.244589366609103340e-03
4.566483355312995693e-03
5.039660706406174501e-03
5.582406906813482637e-03
5.407051739863793019e-03
4.754568453227114508e-03
4.278954695974251932e-03
3.991934843918412516e-03
3.192779518805768067e-03
1.480051097587503205e-03
-5.802654059123250755e-04
-2.116405206772292887e-03
-2.927914468345610335e-03
-3.340984649799349712e-03
-3.382603971402823283e-03
-2.663203273214851622e-03
-1.122277317969334106e-03
3.003711660246764434e-04
-5.369647747547755430e-05
-3.038802699980303491e-03
-7.064539938409371798e-03
-8.617963986039095178e-03
-5.375493050617267607e-03
1.245035856809904081e-03
7.192402448720474489e-03
9.328828123553779134e-03
7.603552163051452081e-03
4.271460634579767567e-03
1.722166123588884587e-03
1.053237254823750045e-03
2.192269279883053961e-03
4.622532523037327368e-03
7.300397801853195957e-03
8.326901156554156191e-03
6.281424581074123575e-03
2.468133004303374022e-03
4.968213926574335240e-04
2.459631782537379831e-03
6.283822646001580026e-03
8.077990596842244200e-03
6.622708301331417004e-03
4.267491920926417583e-03
3.574301234567518835e-03
4.472649877654888417e-03
5.161190470984537357e-03
4.737033684275943068e-03
3.992671494222951346e-03
3.979749991541861945e-03
4.685264134193873643e-03
5.284195773159007514e-03
5.109887931074415940e-03
4.088241901884654902e-03
2.652205504142764788e-03
1.561547442113273227e-03
1.454584268879960916e-03
2.210467187517145722e-03
2.952987791999054680e-03
2.932742501762604891e-03
2.232527944680007172e-03
1.387153043459651153e-03
4.679341215597805073e-04
-1.080203700822841666e-03
-3.572732990165108230e-03
-6.419903463752216558e-03
-8.623975293711307749e-03
-9.532196156203862070e-03
-8.689124085166550354e-03
-5.638473027329862948e-03
-8.806891399845928571e-04
3.283007473190681196e-03
4.177898507928027964e-03
1.576311415846338645e-03
-1.672652137937623729e-03
-2.589710180555570337e-03
-1.231723480816521252e-03
-7.980460560242210247e-05
-5.492055183775488778e-04
-1.350832078551186984e-03
-5.753552637852174610e-04
2.001456697325947401e-03
5.494808565361627636e-03
9.348855218098479913e-03
1.278706552333571875e-02
1.399333376752382070e-02
1.177251768317282357e-02
7.637732364972255050e-03
4.613529088065359586e-03
4.082400796425582519e-03
5.044447265569219907e-03
6.125931219584895664e-03
6.874875691137335640e-03
7.210039538386724643e-03
7.090676715252560922e-03
7.102985362727475688e-03
8.272852524455826667e-03
1.059600174034934505e-02
1.224950258918166245e-02
1.102422406406380895e-02
6.705474138108333260e-03
1.631538104116597807e-03
-1.531685598743393485e-03
-2.427899717393181174e-03
-2.886181971862953645e-03
-4.267203767290327424e-03
-5.880229590780479930e-03
-6.438026990574987826e-03
-6.202751109735110159e-03
-6.731741295691736141e-03
-8.601379349670135871e-03
-1.015746982315955671e-02
-9.038045797280491386e-03
-4.871544060280019912e-03
-6.244070927440426976e-05
2.458595352112431277e-03
2.224988425244271012e-03
1.547707813198673709e-03
2.704007324999936276e-03
5.453954417411195459e-03
7.851397068060858575e-03
8.799245469203921186e-03
8.822268708233613546e-03
8.639166405829649606e-03
7.974148586410285261e-03
5.938644655172528077e-03
2.173144011651370524e-03
-2.344088990094136266e-03
-5.396744779086311283e-03
-4.832856805482420304e-03
-4.668697315347971125e-04
5.240370675465867538e-03
8.865360058659938966e-03
8.605463794359247479e-03
5.253644536069362533e-03
1.024509992334213769e-03
-2.277176929327939803e-03
-4.227293982419077535e-03
-5.405333283498954360e-03
-6.371828549095278314e-03
-7.290864223236910927e-03
-8.420305920320713192e-03
-1.024844166877275815e-02
-1.275465060064603570e-02
-1.502890717624598416e-02
-1.601386171571238248e-02
-1.522630896984135916e-02
-1.260916659226430508e-02
-8.390105263203516406e-03
-3.341285852265099467e-03
1.529154850142222478e-03
5.702208378736585773e-03
8.947842035680794379e-03
1.064867566901259339e-02
1.033077966723161371e-02
8.856117667086042811e-03
8.104420928172855615e-03
9.093825224452005418e-03
1.090096714222637056e-02
1.174459685197171144e-02
1.081261443801369987e-02
8.751735857613679795e-03
6.730086490828163411e-03
5.400664946287673553e-03
4.491681221423514045e-03
3.197118987488653877e-03
1.376269290511939435e-03
2.562227309863251957e-04
1.058487822748990347e-03
3.056368775064910968e-03
4.255334216570388732e-03
4.031491715183973569e-03
3.714354995300944533e-03
4.307170099157164173e-03
4.907416926062820560e-03
3.959592307553872620e-03
1.292867425866961548e-03
-1.678840509383393992e-03
-3.361159666545174805e-03
-3.006157946572295559e-03
-6.430672253826028679e-04
3.043393090289526863e-03
6.393351228015355971e-03
7.204975130969394799e-03
4.544694357270178883e-03
9.241637591314686047e-05
-2.990131845929620662e-03
-2.734940780433171154e-03
1.821142629650314892e-04
3.383603083705763459e-03
4.817344946933505012e-03
4.096989743110215389e-03
2.491485526677790236e-03
1.721490625031412910e-03
2.298427884766679648e-03
2.916499616843370134e-03
1.813091308467737646e-03
-1.280579302715392038e-03
-4.909110435658886953e-03
-7.557964451006989916e-03
-8.994428756260226809e-03
-9.761459166038226679e-03
-1.010569821887737779e-02
-1.022771309422161948e-02
-1.101994315161978870e-02
-1.320291801797511717e-02
-1.572426563557879908e-02
-1.622350620674206309e-02
-1.335132009221560653e-02
-7.897843300673522415e-03
-1.780128794709441445e-03
3.129097552164630380e-03
5.374829313090623110e-03
4.610058686841378255e-03
2.487227430364708988e-03
1.747474179000383255e-03
3.600754071382818340e-03
6.736278680836319671e-03
9.506015583959836687e-03
1.207907042228601249e-02
1.549416750441219050e-02
1.942434792315195224e-02
2.209024400292206383e-02
2.209560181329744619e-02
1.951059195432988322e-02
1.540788837108721804e-02
1.108319374744932279e-02
7.610599502903387346e-03
5.491220077691778140e-03
4.459197533063983393e-03
3.700570658025142869e-03
2.453606576693959616e-03
7.384200338372691897e-04
-4.743990156676149606e-04
-2.274510026383700333e-04
1.268227587230955295e-03
2.836891889154745730e-03
3.605929640617554569e-03
3.666225767013917176e-03
3.585504408006224067e-03
3.641614687487926445e-03
3.536804233759049173e-03
2.737499725588581848e-03
1.187960594256146953e-03
-3.813821969972375214e-04
-1.232658993703275238e-03
-1.653190926687168535e-03
-2.584124359333239522e-03
-4.134163647207273612e-03
-5.231789976844166898e-03
-5.078968327412402423e-03
-4.272745382187820122e-03
-3.996185531918878056e-03
-4.546230134129114128e-03
-5.204587057401633028e-03
-5.393611401844387171e-03
-5.431241177258411788e-03
-5.910358045757985179e-03
-6.581466238503680573e-03
-6.341726527819232552e-03
-4.433383591319047488e-03
-1.152422023658786470e-03
2.777899388266038151e-03
6.809829730902894514e-03
1.018692276073312510e-02
1.178836205775785420e-02
1.111138604269290217e-02
8.989025513264291625e-03
6.760266474825474096e-03
5.127216561339990528e-03
4.255221504467742756e-03
4.280674451733027658e-03
4.912144574203101098e-03
5.106351491332360507e-03
4.138216926093424286e-03
2.726644805134123290e-03
2.248107563015778586e-03
2.988251493838905894e-03
3.908648552126491905e-03
4.096484511826626283e-03
3.775929557807954258e-03
3.723997066778002123e-03
4.191214938354763213e-03
4.752859125373981065e-03
5.013570630643952170e-03
5.136899207717779935e-03
5.688471099565925448e-03
7.016895051010788031e-03
8.615687057369666654e-03
9.183759699804198637e-03
7.874026465181394388e-03
5.576496159094835627e-03
4.259261900145550409e-03
4.703725526227059937e-03
5.409199116044253151e-03
4.082506005157777486e-03
-3.070174827026759580e-06
-5.091628015795837681e-03
-7.973663266642326899e-03
-6.116432045794724555e-03
2.878604360039863043e-04
7.905182525025197110e-03
1.244544616424827187e-02
1.189486710578657562e-02
7.650447351416259263e-03
2.697618011033768668e-03
-7.575263515086262537e-04
-2.015080761559893963e-03
-1.329880337266721793e-03
6.169311133055565936e-04
2.926986885329907820e-03
4.814977269856248257e-03
6.020778541787509888e-03
6.646362878633423239e-03
6.508888427779454221e-03
5.182192368347271483e-03
2.877381504923906975e-03
6.969329776265270832e-04
-2.276194333354159753e-04
4.904344022600712685e-04
2.397331344833344112e-03
4.395224136006724638e-03
5.329747432190013942e-03
4.937343399094957022e-03
4.032328641956063782e-03
3.385825720301877031e-03
2.742552018250499733e-03
1.458420531763307201e-03
-2.151271938901952289e-04
-1.274598343111218090e-03
-1.291513475899965261e-03
-7.682154915284800708e-04
-2.359082773015639322e-04
7.167727041658769355e-05
-3.075920033940195272e-04
-1.814826991566671072e-03
-3.933835894336330796e-03
-5.609837658301154370e-03
-7.028322884427865187e-03
-9.961926826186727826e-03
-1.546027569225252515e-02
-2.166396135408404922e-02
-2.497522556367538782e-02
-2.369899001374425190e-02
-1.989025808926667832e-02
-1.705817007529769613e-02
-1.641902172651443087e-02
-1.612779940554804822e-02
-1.408821700515005410e-02
-1.070636440424977028e-02
-8.485993753195739120e-03
-9.204376522809410571e-03
-1.196017685351587548e-02
-1.425706702243880082e-02
-1.458757059990621260e-02
-1.318349594567959707e-02
-1.062378587888491988e-02
-7.240800139219269287e-03
-4.084707324190419223e-03
-2.572337313196883420e-03
-2.183402807632827455e-03
-2.614355247741361127e-04
4.190133614582964780e-03
7.827533386398209669e-03
6.413554382561047207e-03
5.624423094405096944e-04
-4.310131485161781441e-03
-4.211472781617985571e-03
-7.402979774133585864e-04
1.913542572010350174e-03
2.362792225463486266e-03
2.632388001309780238e-03
4.290016059292369420e-03
6.211542545251120748e-03
6.628685389424175678e-03
5.812298553907919128e-03
5.692368072192020324e-03
7.422296269251702633e-03
1.004245639992048210e-02
1.134977004005533266e-02
9.774755990220110324e-03
5.729634081552741065e-03
1.520699887382111724e-03
-3.009757652804875101e-04
9.229423347958027896e-04
3.340895674443675363e-03
4.449244784653283089e-03
3.690107108864337879e-03
2.957619352383668125e-03
4.431617300056269436e-03
8.222766368968266806e-03
1.248251550528956498e-02
1.552647898605175394e-02
1.705620798369406749e-02
1.722896392078497596e-02
1.563383559616159796e-02
1.209973628622713383e-02
8.042389686126440868e-03
5.842121608747008130e-03
6.499560455879502263e-03
8.545009288537139605e-03
9.742061615841863392e-03
9.444903838617969491e-03
8.777896299004692843e-03
8.847528544930325159e-03
9.486714418981507732e-03
9.764083285614027011e-03
9.082808958133225044e-03
7.537970996393581966e-03
5.754937011726022830e-03
4.769879138446678907e-03
5.468941429642900851e-03
7.352068215152973360e-03
8.188561905287109616e-03
6.023209578168211946e-03
1.763605167922164575e-03
-1.182775348016597804e-03
-3.681616060685634871e-04
3.171143997472950990e-03
6.135212224268861425e-03
6.171477237226233314e-03
3.692439390502558726e-03
9.609274704853735171e-04
-3.701139873594513994e-04
-7.126407423005408663e-04
-1.351483572241654564e-03
-2.256382812852394254e-03
-2.159614265090273322e-03
-8.648467099030179416e-04
-1.169572851961799302e-04
-1.305895046638604930e-03
-3.053737922880005000e-03
-2.305120380641520819e-03
1.925781160555398077e-03
6.708954381836202893e-03
7.942962706830175579e-03
4.779200929370893552e-03
3.882379681310833743e-04
-1.818886852373033727e-03
-1.550947744294328646e-03
-5.909193580042903550e-04
2.079410882344099112e-04
1.245482750323576721e-03
2.199507964189156319e-03
1.865203762869055860e-03
3.882590192880214946e-04
-8.694067063620691815e-05
1.900179485096932779e-03
4.798182828653005383e-03
5.583479629801752983e-03
3.245018956616337047e-03
-1.701760588781054805e-04
-1.842816179438375775e-03
-7.769389855679132177e-04
1.839750214472021111e-03
4.014903276491010864e-03
4.355824855508929651e-03
2.864217540256466365e-03
1.028485061211209268e-03
8.012130621318712094e-04
2.879346195911759547e-03
5.952389965790663359e-03
7.888077838479695680e-03
7.709492531785938282e-03
6.302184209411479214e-03
5.208448581971556086e-03
5.006262314644347074e-03
5.067752536138041101e-03
4.654235588313752371e-03
3.801077193138839051e-03
3.061278977166519318e-03
2.724682520532142535e-03
2.509850144952946015e-03
1.864909746822339311e-03
4.484891392497270327e-04
-1.472920598312387006e-03
-2.998288577442827490e-03
-3.284430027455972900e-03
-2.511510690664210503e-03
-1.952734318113721803e-03
-2.791846939609960755e-03
-4.856528407240818038e-03
-6.751381108293830376e-03
-7.380140690591971073e-03
-6.972639471101249251e-03
-6.208975013687759517e-03
-4.993275868815060838e-03
-3.234208639931450847e-03
-2.384736060007158678e-03
-4.343604315638336689e-03
-8.351296180596469443e-03
-1.071573457933448249e-02
-8.870777239039005432e-03
-4.595445608226486622e-03
-1.721325480175535296e-03
-1.322748684338085224e-03
-8.978313539959471151e-04
1.752822314973655898e-03
5.552004143025087574e-03
7.779760648854605609e-03
7.590389409780004537e-03
6.661265145180970959e-03
6.484025056837991810e-03
6.263220461123038957e-03
4.221125826665087996e-03
1.907322714613113725e-04
-4.132189975192222635e-03
-7.112735140232907989e-03
-8.319647803934706459e-03
-8.069320479744065272e-03
-7.000155366309857539e-03
-6.089948959568255993e-03
-6.057757506333695009e-03
-6.457118701060751524e-03
-6.076259153476820316e-03
-4.681297697484260514e-03
-3.852847720894528056e-03
-5.366152749684524430e-03
-8.812517108192171114e-03
-1.143707831519416053e-02
-1.052050677076375902e-02
-5.779693550058544529e-03
3.932111755562521255e-04
4.749325674140252723e-03
5.352082065504397239e-03
2.432083743874385081e-03
-2.346309113520426547e-03
-7.068926065548974784e-03
-1.017785103083142760e-02
-1.069059668962219108e-02
-8.568429022582584043e-03
-4.864131279140703444e-03
-1.010738047912842705e-03
2.170470906391584482e-03
4.531872287901987130e-03
5.973532879875521548e-03
6.493188239857520562e-03
6.787495218084915738e-03
7.881085184387924547e-03
9.847194003047782598e-03
1.142996255134121411e-02
1.107840243860112005e-02
8.085972559233834886e-03
3.024616914070570907e-03
-2.389533443203721227e-03
-6.078383199793199049e-03
-6.978481751390810603e-03
-5.955424302236905602e-03
-5.097452076504037193e-03
-5.741209099817288705e-03
-7.108029703938815308e-03
-7.065568728910016916e-03
-4.286157711564785033e-03
5.574360383919192219e-04
5.671942078206326093e-03
9.676523200297526203e-03
1.205631073407643569e-02
1.270295386519763522e-02
1.163994214976382495e-02
9.149301219879606151e-03
5.924023414855233115e-03
3.098682632697743328e-03
1.904589548645369522e-03
2.835278422393144437e-03
5.189794472961891184e-03
7.768698129751103187e-03
9.847589776490665511e-03
1.121861978171999341e-02
1.174169419353532189e-02
1.140671784240859452e-02
1.056643126118476939e-02
9.547375359207915455e-03
8.162351719173465553e-03
6.154412208850340398e-03
4.059965366845823265e-03
2.981001791119919191e-03
3.357195708267704352e-03
4.500304006980984477e-03
5.446920399892109070e-03
5.715013072565390019e-03
5.101988988063301325e-03
3.268796979062289602e-03
-1.208869126012276273e-04
-4.752021454478442229e-03
-9.219107568750236834e-03
-1.190675070213523430e-02
-1.291697302760282801e-02
-1.448995791353355558e-02
-1.850766379339714718e-02
-2.384553807188739133e-02
-2.727320354757598042e-02
-2.722784808241273877e-02
-2.576813596187896641e-02
-2.599506555079569500e-02
-2.820204747383439278e-02
-2.985952790176523916e-02
-2.914003295651329539e-02
-2.686735590831362472e-02
-2.450477251304935405e-02
-2.149004446302358109e-02
-1.585085981662487722e-02
-7.336314851098166799e-03
1.302486282663623245e-03
6.900567935099691935e-03
9.114648440665572976e-03
1.030093150913313424e-02
1.258108789846327548e-02
1.583599866821601768e-02
1.841949237481105631e-02
1.905347736803884168e-02
1.792904728600322461e-02
1.649283465668114831e-02
1.617028717899808912e-02
1.684556509137066435e-02
1.674420430773489524e-02
1.429080667217167214e-02
9.823525289212134762e-03
5.027355864732759201e-03
1.186493523193875863e-03
-1.318103387683897511e-03
-2.316634528345592678e-03
-1.681344396319756507e-03
2.081115809670611074e-04
2.540739517732623458e-03
4.645514699103662874e-03
6.140142571427473391e-03
6.764523740229855427e-03
6.482392997465294404e-03
5.545366245986768639e-03
4.195694067761920887e-03
2.633421245789720547e-03
1.440154034572984363e-03
1.358785299407490061e-03
2.174741879817424211e-03
2.556060998545942736e-03
1.804453565755607426e-03
1.120630809580980660e-03
2.061221190747760269e-03
4.161730834035391735e-03
5.396490211258527479e-03
5.083813946300429036e-03
5.102477923070237661e-03
7.499716709580453444e-03
1.155894555800508240e-02
1.422162898612647046e-02
1.334075125661167253e-02
9.714306126352604404e-03
5.870028228558183021e-03
3.569212725409402244e-03
2.532084513540577234e-03
1.030128311685345665e-03
-2.189296921656247279e-03
-6.205355379496087405e-03
-8.489074089276646071e-03
-7.481942957427266047e-03
-4.161499864196904937e-03
-8.331532028111095917e-04
9.079762932931489993e-04
5.767663723079552310e-04
-1.836291280803985628e-03
-5.508301937234107333e-03
-7.975050433320134136e-03
-6.398857641572018584e-03
-6.907196209931118708e-04
5.429921750668077057e-03
7.609650284354148655e-03
4.979218772734627686e-03
5.537805976082628163e-04
-2.082419197172070621e-03
-1.695907556508583543e-03
6.897517036422370906e-04
3.528155023262606951e-03
5.737506163032204780e-03
6.619427791989853684e-03
5.776156713761912594e-03
3.421412619689722257e-03
5.303911538775188655e-04
-1.700541377362944353e-03
-2.879706102186252187e-03
-3.898106196309799286e-03
-6.023158192195664576e-03
-9.448427572907669783e-03
-1.314710603574127668e-02
-1.623569516312255503e-02
-1.884852633821094275e-02
-2.119593410073218262e-02
-2.223224701779164328e-02
-2.008595348662983032e-02
-1.403940138632241152e-02
-5.764830523446577183e-03
1.684423945987102017e-03
6.098141927209312432e-03
7.230195502079021612e-03
6.084691169043227911e-03
3.917322507614603988e-03
2.095343252188181307e-03
1.971015430999059365e-03
4.013078214402856364e-03
7.216739015020280819e-03
9.973689181814609367e-03
1.163771281821573966e-02
1.282318989917515320e-02
1.404842395573570150e-02
1.466534499416316875e-02
1.357897502474374012e-02
1.059135304021650674e-02
6.374805626529420240e-03
1.403800157618157862e-03
-4.074908737448380489e-03
-8.935188035065615500e-03
-1.139501607807845082e-02
-1.126685810324348953e-02
-1.112956263507743765e-02
-1.402483076577035366e-02
-2.011420355577274791e-02
-2.650694621788047406e-02
-3.045236316788884484e-02
-3.190645107558186949e-02
-3.260551651990614003e-02
-3.334197257478657694e-02
-3.315418652770347335e-02
-3.119491765859468482e-02
-2.819537669132991115e-02
-2.518971615961621349e-02
-2.156394674956334245e-02
-1.573366863238956012e-02
-7.680067661264011053e-03
3.737638381341150005e-04
6.124530571122109232e-03
9.215791701193930263e-03
1.074431808378155558e-02
1.149389022121351245e-02
1.136756152733225771e-02
1.014098607479282238e-02
7.925943889185252736e-03
4.973306480497587286e-03
1.710110905358403844e-03
-9.929731002449901194e-04
-2.143884619183810975e-03
-1.541978915437153003e-03
-4.152941139291014758e-04
-1.038602660807961967e-03
-5.287141960709021427e-03
-1.300247009775923508e-02
-2.154944289812305708e-02
-2.725635365761910900e-02
-2.789253408718578991e-02
-2.434471644713921690e-02
-2.009993836818110835e-02
-1.862980641539486656e-02
-2.053101763262788274e-02
-2.309773921258450463e-02
-2.315658267307479229e-02
-2.039447105397342724e-02
-1.744726320212975496e-02
-1.667123558868839964e-02
-1.748574909570571601e-02
-1.730992463131660053e-02
-1.453324769304233967e-02
-9.640849355666700898e-03
-3.542073547360805735e-03
3.848103362525400178e-03
1.243377983113803237e-02
2.013126438181932903e-02
2.376371498629131426e-02
2.231202694338552811e-02
1.861194075828992434e-02
1.704795345253837940e-02
1.949422832506924122e-02
2.374021792296914651e-02
2.572780585220416083e-02
2.314592714987040098e-02
1.719646920185748801e-02
1.128385961446379433e-02
7.985306432847380509e-03
7.120083727898588767e-03
6.563667530465841851e-03
4.621932236452955776e-03
1.565414517639576166e-03
-6.522869943577894354e-04
1.264113071959632132e-04
4.515636902087004009e-03
1.061233361674155350e-02
1.485870629065399150e-02
1.456964589299732798e-02
1.013154620130044675e-02
4.682909950688924142e-03
1.345182910510161513e-03
7.042188389733841994e-04
1.003302346272651148e-03
4.359423354559504877e-04
-1.091554915883391486e-03
-2.213000215105416675e-03
-1.636477417895810301e-03
6.344464303791870312e-04
3.288622837845925177e-03
4.666967201203603421e-03
3.828263478383915966e-03
9.129440700925804545e-04
-3.354088216422929786e-03
-8.280438688433016531e-03
-1.313491742596655486e-02
-1.682151482155698485e-02
-1.842983433667180759e-02
-1.833921787554671640e-02
-1.818910740588794081e-02
-1.939384853249150401e-02
-2.185413491978046782e-02
-2.401892672635395909e-02
-2.389851826533049076e-02
-2.031170063910327228e-02
-1.370023607207079830e-02
-5.732187852166850672e-03
2.075202773332207682e-03
9.128530380335529715e-03
1.497412484171592971e-02
1.819325877828067636e-02
1.704357965727611862e-02
1.182322645811525845e-02
6.064180113567397418e-03
4.164382153636229066e-03
7.357315967394581664e-03
1.251946011610174415e-02
1.527881487187930480e-02
1.404193885747777142e-02
1.090680770024969257e-02
9.071900835312049494e-03
9.753831652563792198e-03
1.159576298237082088e-02
1.265429739503532054e-02
1.243120049984426483e-02
1.180651826564184728e-02
1.147392851532772276e-02
1.114359087589948324e-02
1.037153738960871867e-02
9.481537220677412059e-03
9.084941427319548693e-03
9.001728421448187620e-03
8.374728377777848620e-03
6.928514802335561037e-03
5.492492163735130349e-03
4.943699889433786354e-03
5.071620006213624875e-03
4.931892029636331803e-03
4.069551785381082462e-03
2.916138665947732266e-03
1.985937996184281885e-03
1.055684128872062637e-03
-5.698580838777990388e-04
-2.933487081675179020e-03
-4.876657341111761620e-03
-5.221834468941542566e-03
-4.658978110481027356e-03
-5.582947645909893709e-03
-9.212387008365401087e-03
-1.354281778126058267e-02
-1.548927048878552190e-02
-1.478062020156287008e-02
-1.411783624207724186e-02
-1.520466707352582762e-02
-1.631465317214630256e-02
-1.489163815815352024e-02
-1.139611383597933549e-02
-8.979544034729744148e-03
-9.740487901286227004e-03
-1.273235002378227988e-02
-1.546618437478703735e-02
-1.587315304017743872e-02
-1.276395817414127318e-02
-6.145544898106422745e-03
1.927960066292200292e-03
7.873143946999134474e-03
9.383973224472902386e-03
7.870432349709294631e-03
7.295871346653319545e-03
1.011819644543429826e-02
1.467968384022101842e-02
1.701319814681672912e-02
1.508444563918279191e-02
1.080287530209072221e-02
7.795451384146616543e-03
7.679406411428491702e-03
8.876436733214344843e-03
8.701953793444103941e-03
5.932726012920892800e-03
1.387792831056452927e-03
-3.226480600801118811e-03
-6.657937813118114563e-03
-8.713167091269838002e-03
-1.005323280230220086e-02
-1.149065786509958706e-02
-1.317178591533106798e-02
-1.413694602071444671e-02
-1.287152762371172009e-02
-8.834570801468837400e-03
-3.670805397050946450e-03
-5.447917220369455143e-04
-1.714481734594881356e-03
-6.497075299491326429e-03
-1.173162488049729960e-02
-1.449499115100997930e-02
-1.448951374802741505e-02
-1.368575360971329216e-02
-1.380464324088768666e-02
-1.478678394809989846e-02
-1.578704462640815459e-02
-1.660795625698622408e-02
-1.747654324344838708e-02
-1.821937844917124322e-02
-1.856046216264081034e-02
-1.878587338881266416e-02
-1.928538247535691377e-02
-1.967393314447778499e-02
-1.904296519841066140e-02
-1.697277580698416249e-02
-1.391909537304022657e-02
-1.084242301817151324e-02
-8.724637460136790146e-03
-8.061455376549215776e-03
-8.404425075180126103e-03
-8.621279033392848304e-03
-7.961548879518946104e-03
-6.668054552179644538e-03
-5.346481402075923921e-03
-4.264629068956540814e-03
-3.645501868435656496e-03
-3.841553679024567632e-03
-4.349610092440683862e-03
-3.306753964423643326e-03
7.400416928963728580e-04
6.578822659768405502e-03
1.090869930475112971e-02
1.150059673118943547e-02
9.147782149349692471e-03
6.236498000158676933e-03
4.059242197211105317e-03
2.090085689590628730e-03
-4.482257337261951564e-04
-3.094101339517540961e-03
-4.672814276997069340e-03
-5.010950592410112411e-03
-5.170917805563983276e-03
-5.490434709894012263e-03
-4.286886185155699101e-03
3.367288875629371060e-04
7.554979505183719371e-03
1.370898305947464320e-02
1.563265205043942035e-02
1.377510658039069434e-02
1.159678296404316293e-02
1.194557924941702133e-02
1.434337114405302357e-02
1.578836003758155374e-02
1.388127987702613905e-02
9.121318363513193292e-03
4.484346866024295844e-03
2.986533376586334148e-03
5.443748276281358892e-03
1.010005460875401662e-02
1.410722498529436847e-02
1.562959204340658159e-02
1.509456968337148132e-02
1.446070750321102293e-02
1.481963234182599037e-02
1.483263993798990439e-02
1.232562660264566699e-02
7.426500503620329409e-03
2.914612776844125938e-03
9.647843221781640275e-04
7.070733121823719785e-04
-2.087089273096349984e-04
-2.643149109111780394e-03
-5.531975626725039660e-03
-7.680780772967047906e-03
-8.858156629291446052e-03
-9.349664317434896663e-03
-9.605750544718051620e-03
-1.068325748952745485e-02
-1.394998274411934219e-02
-1.923368257026729020e-02
-2.369001879533545046e-02
-2.384079711372656327e-02
-1.897572425174346572e-02
-1.159506512755447555e-02
-4.325688547245233780e-03
2.459920986239718787e-03
9.311753095755888332e-03
1.497719195721643887e-02
1.658692064336327390e-02
1.302862000095087076e-02
7.121210268417783873e-03
3.433865926861750899e-03
4.144703124565001992e-03
7.575359469994887018e-03
1.053952734163684027e-02
1.148709828215065294e-02
1.124288904765998257e-02
1.125394772387137282e-02
1.172854858463277979e-02
1.157888745127982726e-02
9.957334738542137145e-03
7.540368908878151977e-03
5.933233177831145205e-03
5.828143022553011580e-03
6.283398358430070281e-03
6.022430705094909166e-03
4.937377055674451766e-03
3.927948721497161177e-03
3.547238254032497595e-03
3.210370376998586579e-03
1.775140560829603382e-03
-1.123900846133751765e-03
-4.282528729285559749e-03
-5.727480654332056491e-03
-4.676648904923942467e-03
-2.514545814349726516e-03
-1.291878684016261160e-03
-1.347946116173638891e-03
-1.220919582676428371e-03
-2.477794104255501544e-04
-3.694583612652551502e-04
-4.223664272850361466e-03
-1.148665089108809323e-02
-1.827069145623157198e-02
-2.096606967916274725e-02
-2.008306685567142272e-02
-1.917849502367702588e-02
-2.018429030530765472e-02
-2.122891485075438511e-02
-1.962725704971505017e-02
-1.575481198844791431e-02
-1.252619106977293645e-02
-1.134779014836568255e-02
-1.021810901299244692e-02
-6.571273564719641580e-03
-9.384533564806560920e-04
3.398504365711758294e-03
4.111114332253130305e-03
2.179899056992725976e-03
3.912858250097213516e-04
2.617549787814976931e-04
1.003089042663799337e-03
1.066795654973415504e-03
-2.225754151404901564e-04
-2.705181240470418830e-03
-6.099420503317413284e-03
-9.885479733434702695e-03
-1.286996593622444923e-02
-1.383160793345685965e-02
-1.300408368393962504e-02
-1.246822028005840390e-02
-1.427027581884313633e-02
-1.793677417936633336e-02
-2.059103896627394528e-02
-2.007134748585783640e-02
-1.732739727940912564e-02
-1.507239965311415845e-02
-1.461004905664308427e-02
-1.487520029330448128e-02
-1.436616991567518133e-02
-1.301182363862583499e-02
-1.175404389079170997e-02
-1.084786356412493699e-02
-9.230905749671903734e-03
-5.758201626139390454e-03
-8.225969940941649326e-04
3.727289977332915068e-03
6.568684242883229135e-03
8.396050269789463727e-03
1.076747378687320164e-02
1.367633506237322938e-02
1.528000817938082387e-02
1.434683240038570062e-02
1.212185489520200068e-02
1.119208621128665003e-02
1.299428083578848571e-02
1.680893007652230903e-02
2.059347780678545334e-02
2.228995705435240365e-02
2.089101470288125262e-02
1.702756799663057014e-02
1.250554812889422343e-02
8.836122368394795645e-03
6.048049180416435917e-03
3.018003724131609715e-03
-9.752177767082823370e-04
-5.206966861931147487e-03
-8.295056307196043213e-03
-9.874123484715568305e-03
-1.091919360006356719e-02
-1.226400160243404022e-02
-1.335655452746232000e-02
-1.296307899930518315e-02
-1.093522436689212639e-02
-8.790817776300103442e-03
-8.320602856573603573e-03
-9.929223365204558477e-03
-1.275395389632749503e-02
-1.594984601314109601e-02
-1.884486677610490435e-02
-2.009778675585831287e-02
-1.824838596928335735e-02
-1.358442850436294633e-02
-8.419461750025844862e-03
-4.955531886210447039e-03
-3.310036499216384952e-03
-1.719520098784422038e-03
1.794620149010031553e-03
7.794255026844398165e-03
1.461403611542582900e-02
1.906596230732124017e-02
1.881236038788985238e-02
1.458305662293439206e-02
9.809037582882353112e-03
7.822942814213383611e-03
9.340016506394131085e-03
1.231154763090743648e-02
1.379034380802438703e-02
1.204658435160575573e-02
7.527059128655271339e-03
2.348377898515956099e-03
-1.142772137487910612e-03
-1.864418552449895791e-03
-6.121483324502204233e-04
6.942155125528458488e-04
4.646069777891385054e-04
-1.711355864244748157e-03
-5.217840919169844903e-03
-8.946321925925853485e-03
-1.187979015233630795e-02
-1.376785493915183047e-02
-1.535667722394239848e-02
-1.756673451300789016e-02
-2.030313655635538131e-02
-2.238095230758169532e-02
-2.271490213812538822e-02
-2.118525236005964346e-02
-1.818554513845155318e-02
-1.387758228358587989e-02
-8.397059565864541109e-03
-2.527403878001572169e-03
2.418062694563788764e-03
5.589170670872361212e-03
7.279811843069317230e-03
8.314484409320798200e-03
8.742809980229748756e-03
7.652065982822248494e-03
4.589866212821570868e-03
6.788116452805877284e-04
-2.106504954445224606e-03
-2.511897849452888153e-03
-8.219882905794070578e-04
1.380193174594434007e-03
2.226843310178368285e-03
1.030759417206473811e-03
-8.508276811157762650e-04
-1.021722350414318086e-03
1.672636535056291939e-03
6.093028692104218019e-03
1.014482145322874278e-02
1.261669877068954948e-02
1.343987411639006521e-02
1.279479049789315585e-02
1.062113687432573311e-02
6.999860719490095216e-03
2.787734685400930501e-03
-3.781666637919085762e-04
-1.164820505787882501e-03
1.460110196299431061e-04
1.933626046121050043e-03
3.291028729041091481e-03
5.240545493335323213e-03
9.178257099087198945e-03
1.466072296230981273e-02
1.965623196427680394e-02
2.257373294290170376e-02
2.317929210167948492e-02
2.197082090321116413e-02
1.965177077307143222e-02
1.688356531457185089e-02
1.338962035144789647e-02
7.473644389588978906e-03
-2.073285553430645294e-03
-1.323833144350780588e-02
-2.146424854121075851e-02
-2.404571901164843928e-02
-2.305218577902177698e-02
-2.305756149223318549e-02
-2.654600277105824413e-02
-3.244037043741404558e-02
-3.873953026755800472e-02
-4.507493761350367389e-02
-5.182745456666427303e-02
-5.768791595253811716e-02
-5.964519783049683499e-02
-5.567900119483046306e-02
-4.674782102706057790e-02
-3.590593963385937948e-02
-2.590511613630911564e-02
-1.785646031186776880e-02
-1.190882844806895845e-02
-8.560648259880718203e-03
-8.518431635038174743e-03
-1.108267193253174507e-02
-1.355814113150317739e-02
-1.330297129256127059e-02
-1.050501469530698735e-02
-8.496974052091191623e-03
-1.093838543840929857e-02
-1.826659973821875491e-02
-2.662539482503807620e-02
-3.052579800718952657e-02
-2.708903722287249460e-02
-1.796956426975344565e-02
-7.190394348484445419e-03
2.658154059520584887e-03
1.167879573592855123e-02
2.043154899893024831e-02
2.778382533722196374e-02
3.200680029156181827e-02
3.331046187204123044e-02
3.392161984625047949e-02
3.552239583942803230e-02
3.750906399061934571e-02
3.810719629788723167e-02
3.659289451763936274e-02
3.392304283287890521e-02
3.145438723412828652e-02
2.953289880224417921e-02
2.736169775861307940e-02
2.392783361966763570e-02
1.885781194408368486e-02
1.243679022626179888e-02
5.086961764679412759e-03
-2.869063990620150835e-03
-1.108318143155328887e-02
-1.923897516945686018e-02
-2.703176823475038001e-02
-3.359629409683093787e-02
-3.750341312147992962e-02
-3.847875723006666249e-02
-3.900486066042183064e-02
-4.283492848610202797e-02
-5.119900389897512338e-02
-6.110457334827130993e-02
-6.789572555190745429e-02
-6.889322435564228242e-02
-6.416631990178395251e-02
-5.505174857905032609e-02
-4.356727071697041181e-02
-3.306828576234307343e-02
-2.769114154131306627e-02
-2.963864203925410667e-02
-3.678882636374206788e-02
-4.380961179201203065e-02
-4.643967700725432773e-02
-4.454430143654029839e-02
-4.058849572822122859e-02
-3.586754167733979815e-02
-2.948800805216584067e-02
-2.068758657955790600e-02
-1.040526516209451871e-02
-1.000085758242007759e-04
9.573712576554753440e-03
1.810220740188450347e-02
2.418412021259302297e-02
2.676163060204680630e-02
2.679265704564296260e-02
2.679908671459825531e-02
2.831355610448993768e-02
3.080103926619701463e-02
3.366282587240729957e-02
3.807344742037137297e-02
4.533897543122168694e-02
5.376707514285697376e-02
5.877816262123885388e-02
5.681385282642518325e-02
4.847612768994649657e-02
3.751939521829029955e-02
2.763298163248081168e-02
2.077387534971313759e-02
1.761586037957041384e-02
1.807010173048680460e-02
2.109562443578001309e-02
2.485865123147880731e-02
2.754277310294852427e-02
2.794574332791453092e-02
2.574685039048479895e-02
2.189904865932168834e-02
1.852301600084109434e-02
1.747573849416562269e-02
1.865304723320555802e-02
2.005572020264065336e-02
1.970042313046187904e-02
1.727397085112468075e-02
1.398010116764028185e-02
1.111720470136474438e-02
8.951749912344271476e-03
6.863363874280014633e-03
4.264117832920753630e-03
9.767861816501553079e-04
-3.085448060981538579e-03
-7.767068978105735530e-03
-1.194568690566267903e-02
-1.378616475661165360e-02
-1.246914699104102568e-02
-9.464207630870278415e-03
-7.466987556216884633e-03
-7.904140888660737482e-03
-9.798298152764020608e-03
-1.121036138618406765e-02
-1.137572387962154652e-02
-1.100142813511180602e-02
-1.068785969123948847e-02
-9.768839028226502380e-03
-7.172283913277418751e-03
-3.128950357303401843e-03
6.758228902572929828e-04
2.795483979666722393e-03
3.340991307162232901e-03
3.379675256653678732e-03
3.406168599261122712e-03
2.733625860739373383e-03
3.572461059588423688e-04
-3.758506504967856592e-03
-8.442476478075036997e-03
-1.237351893501684175e-02
-1.506073966824992075e-02
-1.662023030535072707e-02
-1.706956329302634912e-02
-1.635620992749928226e-02
-1.474825846186031061e-02
-1.252921765534118111e-02
-9.399063318537199258e-03
-4.772514141986597229e-03
1.172271010465496862e-03
6.964544235472458836e-03
1.054880440805801810e-02
1.080542297546925601e-02
8.550021775699313473e-03
5.705256914215521558e-03
3.230781852936421422e-03
3.514712710492419803e-04
-3.723779304261031712e-03
-7.975009672410222905e-03
-1.055870313647114082e-02
-1.159527907836993207e-02
-1.379464079329507584e-02
-1.963690295228355878e-02
-2.857753021032614915e-02
-3.768823495434600601e-02
-4.446165305218243574e-02
-4.812111215235687772e-02
-4.863336040917638076e-02
-4.582467786008736360e-02
-4.001112651641502982e-02
-3.249723052219517100e-02
-2.420186816424894569e-02
-1.414120053567014673e-02
-9.844793263597099997e-04
1.342587290439995959e-02
2.405264978581031846e-02
2.788210345566566328e-02
2.803820640765773697e-02
3.038288215348396853e-02
3.622041140679533450e-02
4.088094382193493970e-02
4.022279744543949542e-02
3.612719952506550369e-02
3.379241188038074190e-02
3.495806242026201771e-02
3.595058011587172475e-02
3.245242935788070215e-02
2.457927018662970156e-02
1.637381498294047596e-02
1.121909045986185620e-02
9.029008407456450350e-03
7.755321301773233922e-03
6.344075027753793422e-03
5.505330419276071446e-03
6.129533696683649516e-03
7.845311468003508121e-03
9.253197942627820749e-03
9.108122861367518724e-03
7.287711527504240477e-03
5.062591379977966592e-03
4.335843985945633978e-03
5.996246101102533678e-03
8.798431522083106568e-03
1.025703502146308593e-02
8.934472835255103523e-03
5.612409720756486239e-03
1.822112911242409084e-03
-2.662995275598796421e-03
-1.009190242952467606e-02
-2.186368407076302173e-02
-3.576137346902549113e-02
-4.699689308635560114e-02
-5.244290672376109713e-02
-5.349857695045684425e-02
-5.434257377307580295e-02
-5.762272962425524919e-02
-6.261973605292195377e-02
-6.741530150971748736e-02
-7.125855861900913524e-02
-7.403305137446446194e-02
-7.478467690967416370e-02
-7.208649792072978346e-02
-6.519086414366068172e-02
-5.396444241194687380e-02
-3.859838146679345217e-02
-2.072287811799548504e-02
-4.423633246357144486e-03
5.594654386702395919e-03
8.034836626948513999e-03
6.983347312753464611e-03
8.988657997441078240e-03
1.750635862238491755e-02
2.993048174089928820e-02
3.985636920298059327e-02
4.200252870452239606e-02
3.524045941318200426e-02
2.222665815299846095e-02
7.526292135337828149e-03
-4.270353714716819751e-03
-1.059635856052030048e-02
-1.236849954792964765e-02
-1.281742414957014534e-02
-1.405843447010646924e-02
-1.528754910970087783e-02
-1.490282429211097284e-02
-1.347865222989382342e-02
-1.343550964885913482e-02
-1.603245325299393342e-02
-1.954099645508638669e-02
-2.036354842854842806e-02
-1.583627255105796508e-02
-6.612864941821536974e-03
3.461741397756481348e-03
1.057257153323568587e-02
1.408394516460597518e-02
1.570209100227368954e-02
1.617227586387337199e-02
1.480730604324330402e-02
1.243298738555844579e-02
1.244834802874952157e-02
1.741445923424435327e-02
2.566896795115198443e-02
3.274834165107179396e-02
3.561154011978161921e-02
3.427381143939649960e-02
2.997640372182838742e-02
2.358779820451429796e-02
1.600767156534233654e-02
8.648705799582727741e-03
2.762222912737579035e-03
-1.130290426958159957e-03
-2.925705576950421698e-03
-2.829814615189979628e-03
-1.906555153448512892e-03
-1.849320713692363021e-03
-3.274393856813740192e-03
-4.614857067637934303e-03
-3.778585611932985724e-03
-9.893902929237502909e-04
1.064081626396075776e-03
3.494674779885992288e-04
-2.269079777167488151e-03
-4.750652983714590862e-03
-6.852659215721628588e-03
-9.897986792189132979e-03
-1.396146768802354957e-02
-1.711898289597323097e-02
-1.814687170554995718e-02
-1.863129156948985926e-02
-2.107348377555100238e-02
-2.533625605771447006e-02
-2.830766195044556385e-02
-2.729596135751760286e-02
-2.260881159582286623e-02
-1.621611898023577608e-02
-9.097618357822231938e-03
-1.263463857438323077e-03
6.369149282011746585e-03
1.211826295401614330e-02
1.587497999888666869e-02
1.962138252214449402e-02
2.462016776087214837e-02
2.904117021952203753e-02
2.927925258915318324e-02
2.298769565831030107e-02
1.032500356163053301e-02
-6.646507456484962093e-03
-2.477116008154491011e-02
-4.084009495177765015e-02
-5.303945891250180789e-02
-6.131704926669673955e-02
-6.605512050973876004e-02
-6.716780737263240708e-02
-6.526369987375689463e-02
-6.299908875376064588e-02
-6.387609792235907080e-02
-6.903665361982914972e-02
-7.522976540110272448e-02
-7.618643086457638214e-02
-6.692495592866032350e-02
-4.784522570632923633e-02
-2.471995745342396231e-02
-4.187483772602508536e-03
1.072933644804649825e-02
2.080214458896725849e-02
2.759401358270208854e-02
3.159490775024918763e-02
3.303430771755785228e-02
3.290750788798479237e-02
3.237823349879332541e-02
3.206689527160681147e-02
3.254853338055612583e-02
3.434739946837044727e-02
3.634313334461029832e-02
3.520244236102867963e-02
2.779353068856701622e-02
1.373804815072530820e-02
-5.305449327867813036e-03
-2.812662417628130490e-02
-5.437240437483500249e-02
-8.240531822492129510e-02
-1.078261517946270537e-01
-1.254206366862439526e-01
-1.333027678562750395e-01
-1.346280346836851993e-01
-1.342398574186195459e-01
-1.337109911694755460e-01
-1.305021554240045067e-01
-1.218883597819031411e-01
-1.084832481928708625e-01
-9.318534371466323518e-02
-7.745672167924497198e-02
-5.968900274503743247e-02
-3.698664822044600564e-02
-8.034485614225176861e-03
2.462119495553910520e-02
5.357922469440253022e-02
6.935447240372603905e-02
6.786365798674792726e-02
5.616187338443646981e-02
4.798689913255529266e-02
5.153483929408586572e-02
6.246707867198691977e-02
6.990382760636359993e-02
6.811581080067188876e-02
6.080407471506910771e-02
5.464006999768301204e-02
5.119541098759219228e-02
4.677610004146611627e-02
3.888962693253694702e-02
3.021507806579864022e-02
2.546620391501492470e-02
2.622066888900182260e-02
3.012546881929156761e-02
3.380140420198284035e-02
3.486209358752656584e-02
3.178417150070977221e-02
2.384126384579748209e-02
1.214014019425303445e-02
2.711025908260509057e-05
-8.679942229785110597e-03
-1.223004602128832836e-02
-1.147436985280156883e-02
-8.053316801286656418e-03
-2.833323221269952452e-03
3.444152376350440199e-03
8.754456825428115485e-03
1.048146149423716603e-02
8.065095705321680825e-03
4.169714700930120949e-03
2.502835470983725673e-03
4.755773482657374603e-03
9.972804903390298376e-03
1.616054838241547109e-02
2.147358325838789883e-02
2.410345298487370780e-02
2.261074191103481720e-02
1.734000437632297539e-02
1.076746678351342759e-02
5.471753349816352308e-03
2.004845200703616378e-03
-5.818473609446972276e-04
-2.467416457263765968e-03
-2.443787472640428747e-03
3.284785143408200381e-05
3.147865009262221757e-03
4.213973508109787949e-03
2.679582789174895802e-03
7.220600556515706543e-04
6.735421675803383423e-04
2.493632449569795420e-03
4.148251532744397577e-03
4.148944247658643489e-03
3.174314471333225182e-03
3.080072175963038950e-03
4.783305321673561768e-03
7.503311965107808262e-03
9.674537250374582592e-03
9.857548668474831743e-03
6.878827024549692692e-03
2.711057784865611312e-04
-8.560973019665362588e-03
-1.620694181900768360e-02
-1.946868365556573763e-02
-1.811417633596963672e-02
-1.520149933498933167e-02
-1.453820765548734240e-02
-1.768501628789194771e-02
-2.328395705603637442e-02
-2.919559684821104034e-02
-3.482601694873588977e-02
-4.093837132548715924e-02
-4.778294821051570773e-02
-5.428116240407353937e-02
-5.874914607254447946e-02
-5.972155070394739168e-02
-5.642689990784213044e-02
-4.935760271661115972e-02
-4.058201770949473181e-02
-3.288164315899341078e-02
-2.773923773123667877e-02
-2.400385688299642648e-02
-1.938425956684193194e-02
-1.385195181205305104e-02
-1.079332065515717712e-02
-1.379663791298404302e-02
-2.254085214714644445e-02
-3.268149883093524749e-02
-3.970658150236363454e-02
-4.200907688425759012e-02
-4.014653981135016259e-02
-3.476025389636765162e-02
-2.667557928300044387e-02
-1.804172790482022615e-02
-1.124384196004532023e-02
-6.423310267120396766e-03
-1.396154391674934818e-03
5.606280548804777608e-03
1.398953044723202227e-02
2.178238466086226607e-02
2.761998451763325590e-02
3.131598220300051832e-02
3.340006706483168025e-02
3.475101640017037169e-02
3.576098276397934872e-02
3.508438377368430089e-02
3.034449965499587398e-02
2.125771431915345067e-02
1.107584567847719539e-02
3.452302663615464205e-03
-1.704120250501047363e-03
-8.020869773902632865e-03
-1.825194622400532971e-02
-3.076499205128234091e-02
-4.078908774790192954e-02
-4.506442686011318671e-02
-4.482713670498509467e-02
-4.396052245209539772e-02
-4.473468254727086535e-02
-4.589632508060635663e-02
-4.441447218522227847e-02
-3.824547754262255100e-02
-2.761619585277558589e-02
-1.463536758989661402e-02
-2.152903884713954722e-03
7.403288892417618158e-03
1.286845296187588347e-02
1.474864657156179509e-02
1.489445342307016591e-02
1.505985383419371909e-02
1.508714207505831156e-02
1.268312576969739085e-02
5.676902908937521766e-03
-5.114717091492316722e-03
-1.541253737353230797e-02
-2.033982816824085257e-02
-1.825420823344239135e-02
-1.189681689616217328e-02
-5.610737943813283793e-03
-1.213937957699002786e-03
3.530260723334092618e-03
1.223065375172822239e-02
2.544471656137807514e-02
3.919271098814781917e-02
4.827151802553741877e-02
5.072519460229043403e-02
4.858187093089468001e-02
4.469846149159657084e-02
3.985412359994508491e-02
3.302213504493713842e-02
2.356195603101492869e-02
1.236079237192168855e-02
1.114708922470332170e-03
-8.614890006421812782e-03
-1.549110741022602378e-02
-1.849108960006787955e-02
-1.770431672160256015e-02
-1.485205654253551194e-02
-1.240524318139928431e-02
-1.194604259389569351e-02
-1.341909558765450039e-02
-1.577284715789861735e-02
-1.793393632132068635e-02
-1.903531799512950609e-02
-1.802187267365113268e-02
-1.368324184279439380e-02
-5.705736235563597589e-03
4.274662235235868364e-03
1.332958551117366733e-02
1.946735161690121146e-02
2.289523044689717110e-02
2.460666546214290706e-02
2.433067580267803814e-02
2.108063543994440417e-02
1.552526318034689982e-02
1.011776671704954327e-02
6.205673325276802113e-03
2.179794648092923601e-03
-4.837152138292665458e-03
-1.621565458105772572e-02
-3.089054931145393534e-02
-4.614032346653982458e-02
-5.895552232681476601e-02
-6.770308207924312371e-02
-7.325680904495715517e-02
-7.810298455041513044e-02
-8.378662765582103877e-02
-8.936938288730861268e-02
-9.256426954888540004e-02
-9.210060265834817128e-02
-8.872471243936116969e-02
-8.388596133584827474e-02
-7.758939418164814694e-02
-6.802180473045076059e-02
-5.385237967787018937e-02
-3.674072426087666987e-02
-2.073504341622773445e-02
-8.693768219148691537e-03
3.599524849457831546e-04
9.805980306060059840e-03
2.139008650147337584e-02
3.300918934467090421e-02
4.057685091078305772e-02
4.176821335209855018e-02
3.793630125097482986e-02
3.291885688856718839e-02
3.022438511535482930e-02
3.064212819677051419e-02
3.171582899242997994e-02
2.982673117457810760e-02
2.376964360264944079e-02
1.642495769483096751e-02
1.232238173232513834e-02
1.350246755904984004e-02
1.799835413814604781e-02
2.192694440618894042e-02
2.250768845292867859e-02
1.933042850699198331e-02
1.351668512200278685e-02
6.334515555578523922e-03
-1.113397496996194978e-03
-7.275969395980996443e-03
-1.027374506437014716e-02
-9.397961622455590358e-03
-6.238419987140361028e-03
-3.575177014566718620e-03
-3.032309573333183406e-03
-4.376074975842219293e-03
-7.234951481625547486e-03
-1.252591864705597004e-02
-2.087736707468300368e-02
-2.950576835766446568e-02
-3.221789284655221519e-02
-2.429174795031835074e-02
-7.537962367477526321e-03
1.035420568533578119e-02
2.167569741331238850e-02
2.379656381611716318e-02
1.964027323781991283e-02
1.472634898831227598e-02
1.333124058332091702e-02
1.546951707882467456e-02
1.691761875408797494e-02
1.347846908383646715e-02
5.830813355325447679e-03
-8.737773155949638514e-04
-2.690711757152895647e-03
-1.022598670778753285e-03
-3.705316832584898325e-04
-3.076443701702497209e-03
-7.553118935853710657e-03
-1.105124298326711114e-02
-1.257955121197971808e-02
-1.291037511432852926e-02
-1.295462624885218399e-02
-1.308712268913705609e-02
-1.385131172249102517e-02
-1.622466915671234161e-02
-2.025138259698721840e-02
-2.389852760270020152e-02
-2.475100378974797247e-02
-2.316502901077715712e-02
-2.239703524070179794e-02
-2.487926964749878969e-02
-2.953609173177036001e-02
-3.377737450926682899e-02
-3.702103856097335721e-02
-4.067507048047760282e-02
-4.511389081280427898e-02
-4.831501953184741405e-02
-4.789040106775078326e-02
-4.361871165620812008e-02
-3.729493048512590170e-02
-3.004435253113903193e-02
-2.051341457344677335e-02
-7.011701386830101329e-03
8.444700163592151407e-03
2.026946738321738772e-02
2.497424647273354184e-02
2.516092615025168275e-02
2.593450486674649114e-02
2.858300091336034993e-02
3.019527373647251656e-02
2.884980492091683557e-02
2.619744827006485061e-02
2.409957344986664654e-02
2.133783546289108254e-02
1.592939056090135821e-02
9.462170499082758410e-03
6.508893620185424687e-03
9.402692508419989090e-03
1.513811816887512297e-02
1.819501833063989771e-02
1.591896018020469428e-02
1.069836023539245604e-02
7.150795889250748279e-03
7.765268572440283193e-03
1.146599822094659590e-02
1.576824350479360745e-02
1.932684114396896261e-02
2.221698325398264312e-02
2.468683196052399650e-02
2.644090192795089944e-02
2.696823954715660276e-02
2.622089460762333513e-02
2.497840951993810302e-02
2.433540252625502817e-02
2.453073446963670995e-02
2.467118714386093772e-02
2.405871517424899506e-02
2.314204324559912887e-02
2.226146406398229680e-02
2.003747836949092836e-02
1.452120661489868063e-02
6.118233582719235543e-03
-2.052127418418635621e-03
-7.319156336984591546e-03
-9.814152596456401229e-03
-1.100603222052018437e-02
-1.120868373679590260e-02
-9.852310118205791917e-03
-7.551890766550101511e-03
-6.474944999951768795e-03
-8.484841782805844362e-03
-1.358988034991277620e-02
-2.021950802179853235e-02
-2.638715535302375154e-02
-3.047254886411995822e-02
-3.160028927271500004e-02
-3.001335366645011687e-02
-2.717365842028870299e-02
-2.514132334543761269e-02
-2.561025740385827060e-02
-2.948940794614481054e-02
-3.707702093007572003e-02
-4.781572798449999773e-02
-5.939162301694760754e-02
-6.783869325990796173e-02
-6.989379895747482863e-02
-6.579064469523977776e-02
-5.937546703382515917e-02
-5.507989841010345333e-02
-5.448356786927851386e-02
-5.534590663523360904e-02
-5.365119973349160437e-02
-4.695193764609416343e-02
-3.653240038372904813e-02
-2.677366483647693543e-02
-2.202059023608900559e-02
-2.301731870558561960e-02
-2.552984493157038973e-02
-2.282190525162844721e-02
-1.108436617125766778e-02
6.318631997010494897e-03
2.022504165145708882e-02
2.200849910586992822e-02
8.722240603336267259e-03
-1.707462376097549500e-02
-4.987038341499643035e-02
-8.212404802912853796e-02
-1.054258143431070355e-01
-1.148531934047798547e-01
-1.128601149197093756e-01
-1.069239817379659951e-01
-1.027891177945643719e-01
-1.009141278602271041e-01
-9.901006938336165408e-02
-9.579986138795268391e-02
-9.100986813414849164e-02
-8.306722193805768373e-02
-6.939218333640065350e-02
-4.996830847877122006e-02
-2.943626979176221237e-02
-1.430566568945956622e-02
-8.009678406265072909e-03
-8.703654829791135014e-03
-1.067851559288495594e-02
-6.894814244078234164e-03
8.311560333791727720e-03
3.578357045883834298e-02
6.933990710262395718e-02
9.821678913142377343e-02
1.133967238116170562e-01
1.127692522144437548e-01
1.012921396317275624e-01
8.647854354531188392e-02
7.266571980801207753e-02
5.873617651977758314e-02
4.168444096773166879e-02
2.242340875319199719e-02
6.645026691905751501e-03
-1.272388726024873198e-03
-4.148260629157756244e-03
-9.745115203653264765e-03
-2.242969530868938258e-02
-3.835209368195688362e-02
-4.880100709361002986e-02
-4.701438369940517253e-02
-3.242798983257494383e-02
-1.118484707435789607e-02
6.598276859952810491e-03
1.317876452732826692e-02
1.011035332270875456e-02
8.170996051221920617e-03
1.740739748294480027e-02
3.629070838677105754e-02
5.239270470963872106e-02
5.504217061088083340e-02
4.643657479640317387e-02
3.874629874806669733e-02
4.048506231502436298e-02
4.784796448167966121e-02
5.069038217776022925e-02
4.503363284093649804e-02
3.665846083594659355e-02
3.274409112368033281e-02
3.359321407064116277e-02
3.436972926511428633e-02
3.230689487772510360e-02
2.901691158236480508e-02
2.653860277185449840e-02
2.430336873333728553e-02
2.078297019077414778e-02
1.603255682645096658e-02
1.123668114726490697e-02
6.876643503076138898e-03
2.978536895746180732e-03
8.610828907201229778e-04
2.758247672322809534e-03
8.825839707276447732e-03
1.563641392557461179e-02
1.880486891120262266e-02
1.681112853322434472e-02
1.171120663701845539e-02
6.689808485569740878e-03
3.675386717378859979e-03
2.813075341474113259e-03
3.026216236328762958e-03
2.792302838984632614e-03
1.086069921014953376e-03
-2.004206525723849566e-03
-5.657327077713573613e-03
-9.001573809718506347e-03
-1.106250380638347346e-02
-1.070015119311287267e-02
-7.586398627181331449e-03
-3.060272821071521702e-03
8.107896781565387566e-04
3.015574330261624070e-03
3.932605623151091967e-03
4.028905125961452366e-03
2.836780279993097401e-03
-5.527219696801362585e-04
-6.045241767174182497e-03
-1.148596299228953760e-02
-1.321520046944820066e-02
-8.687999425795903813e-03
5.227573857428330709e-04
8.846267514510400970e-03
1.117243379475330728e-02
7.474053764198315339e-03
2.253851335475218209e-03
-4.415554492626047080e-04
-2.398536204421956083e-04
1.368360953985483380e-03
4.253531302417032887e-03
9.483131696953962103e-03
1.623842527768338054e-02
2.048748954671699915e-02
1.801583301490061045e-02
8.686871390511097940e-03
-3.302738230146195011e-03
-1.368580237314543681e-02
-2.174566590183535028e-02
-2.920850616846423428e-02
-3.663838964627232075e-02
-4.235345846621047655e-02
-4.476483595733679599e-02
-4.441242695734852475e-02
-4.314816121720102537e-02
-4.237631437850554461e-02
-4.303791306558656105e-02
-4.635989440106040582e-02
-5.281244201968039037e-02
-6.023985836711506781e-02
-6.479918710533991155e-02
-6.489826022455910670e-02
-6.336982818734766820e-02
-6.454082979248136620e-02
-6.946676452553546266e-02
-7.523712823591892362e-02
-7.898716873209585265e-02
-8.097473164829978309e-02
-8.226032948164196945e-02
-8.019714989343283695e-02
-6.901021275274850375e-02
-4.651908167897796098e-02
-1.904063623181718665e-02
2.340142729211150581e-03
1.060683417376236115e-02
7.784620294992695977e-03
2.273645655509652988e-03
1.842969141285354800e-03
7.781873598191352270e-03
1.456951861878589063e-02
1.562125668117452654e-02
9.953061530968693518e-03
3.132792054203703287e-03
1.732864080824257202e-03
7.283712173586693109e-03
1.602636721722439442e-02
2.425686510372638410e-02
3.250483456801115528e-02
4.333716569521108009e-02
5.626135828808697531e-02
6.717499694288742162e-02
7.282841888822927379e-02
7.329458624665477484e-02
6.912277706846627068e-02
5.878114921405021287e-02
4.162951682033308454e-02
2.207818861004265040e-02
7.274375225341151580e-03
9.237217591630784985e-05
-2.937723566074558045e-03
-5.874833805769914645e-03
-8.216953905840871861e-03
-7.272325207530662416e-03
-3.588687764504884872e-03
-1.157731615364092533e-03
-2.309503510076767359e-03
-4.571977968162882836e-03
-3.736117511448933289e-03
8.252259670276023773e-04
5.319694695777118891e-03
6.269834014330474478e-03
4.830272324152975333e-03
5.159080110744972136e-03
9.067696029113678571e-03
1.397942540039567166e-02
1.665444746310756202e-02
1.768790449882868404e-02
2.105470205290406460e-02
2.910868521500400291e-02
3.892172166960757712e-02
4.451897840440807719e-02
4.267013281007505515e-02
3.562856325016312137e-02
2.820670272367882883e-02
2.332288416180435323e-02
2.070584563079874707e-02
1.874156971373126118e-02
1.669533351102783780e-02
1.524592980226854161e-02
1.490513620824429793e-02
1.417122688102026920e-02
1.042124105099688676e-02
3.295271882626449149e-03
-3.926077799184801709e-03
-7.586751188295736727e-03
-7.778926760887009892e-03
-7.826311289038559438e-03
-9.716500744546174156e-03
-1.168798404880866913e-02
-1.114362597693661569e-02
-8.535701366553570188e-03
-6.827167719078553951e-03
-7.828504871376918556e-03
-1.069613494127343370e-02
-1.378101850764874500e-02
-1.637959484123344134e-02
-1.846821341181507231e-02
-1.997718350929023751e-02
-2.088079937939402858e-02
-2.130803264545946818e-02
-2.107350063591656789e-02
-1.948762162649300342e-02
-1.605419086590989877e-02
-1.125329878432406935e-02
-6.385955720115351480e-03
-2.526920366886052996e-03
4.017267869921240658e-04
3.343112863275506282e-03
6.645071819325523016e-03
9.126353465930032646e-03
9.206509823661236311e-03
6.945915075587656348e-03
4.107426212139895019e-03
1.665625306378005870e-03
-2.169502596733376490e-03
-1.057769579132790405e-02
-2.460159277973261727e-02
-4.129070092865345237e-02
-5.561465330839088922e-02
-6.448743154548783330e-02
-6.911721313663869715e-02
-7.319605875579547616e-02
-7.846577119813456791e-02
-8.230001410407809803e-02
-8.014828792100463228e-02
-7.035779755037162297e-02
-5.630910759867786830e-02
-4.395187210227019525e-02
-3.749062068813104054e-02
-3.679249911245689730e-02
-3.753604615883683604e-02
-3.361534552387253350e-02
-2.143284854854030433e-02
-3.886130564991480477e-03
1.063206279634844667e-02
1.549252550772942279e-02
1.244184538172710477e-02
9.307610207328464308e-03
1.080073845575614880e-02
1.366027618169356195e-02
1.192671051411516546e-02
4.807648954801606138e-03
-2.575727306423396083e-03
-4.370882149830600596e-03
2.407067426693108511e-03
1.758122196714800162e-02
3.734975677509661668e-02
5.400706215488712547e-02
5.984482808714371160e-02
5.384500480989413279e-02
4.312775682121576526e-02
3.571897942121373543e-02
3.280975035080434948e-02
3.017790198994537570e-02
2.612106203032279333e-02
2.440871116750300066e-02
2.841925230421015261e-02
3.535848745281029021e-02
3.864935634511672269e-02
3.486374213760927432e-02
2.659694580291464133e-02
1.909907372423849323e-02
1.530466002940622863e-02
1.402927422298127016e-02
1.216668461549407464e-02
8.197194366470001575e-03
3.544636953622198883e-03
6.551423731696454089e-04
1.710747087665079498e-04
5.737730473475122737e-04
4.723720822068311689e-04
1.786326392276707618e-04
4.528526561248518312e-04
5.819864713639850019e-04
-1.286383533430404767e-03
-6.382326300556722537e-03
-1.484773980391010037e-02
-2.624366273279092263e-02
-3.880932158797902737e-02
-4.868136664800701285e-02
-5.226121121831498600e-02
-5.007562996721695581e-02
-4.657333834663408834e-02
-4.527076796582275853e-02
-4.559115701779874186e-02
-4.544884481736983367e-02
-4.524208997533984977e-02
-4.724802295980310568e-02
-5.159515696254819705e-02
-5.469985481856690090e-02
-5.201810031233535664e-02
-4.135195720604655650e-02
-2.350428881022358085e-02
-1.375978401572834804e-03
2.051087717841946351e-02
3.719565728647964559e-02
4.646484147179720525e-02
5.085589610450074599e-02
5.476939596742793487e-02
5.952909116163746656e-02
6.255445465309764086e-02
6.101317688254314503e-02
5.470456352831217645e-02
4.549696910487339291e-02
3.557127847106849455e-02
2.655700795199302314e-02
1.909712175958789768e-02
1.262552630573255535e-02
6.377609468892641090e-03
1.089148164690581554e-03
-1.177957888328727727e-03
4.032309684810887014e-04
3.795517171436328229e-03
6.001967775380667204e-03
6.202555161899592912e-03
5.909212139027520024e-03
6.025736722803000031e-03
5.140170894730932034e-03
1.779985022793001848e-03
-2.332031152159486434e-03
-2.800896870727275639e-03
3.084516672964317772e-03
1.289331306399610529e-02
2.018993971933371115e-02
1.932678976995098538e-02
9.942909814806341964e-03
-2.455808927941667379e-03
-1.074107967102915472e-02
-1.219104711407899624e-02
-1.070922355257583961e-02
-1.255773630496177448e-02
-2.028365024426016447e-02
-3.196538447470719663e-02
-4.566284616686507730e-02
-6.205981455054919438e-02
-8.177281077321306435e-02
-1.017998835686036024e-01
-1.165875145470028351e-01
-1.227203912292402083e-01
-1.216293731898314828e-01
-1.178614829796432589e-01
-1.159179220840912683e-01
-1.182448735323581579e-01
-1.233872043817906966e-01
-1.248219891157871936e-01
-1.144787604436095368e-01
-9.060375650929565483e-02
-6.146920711398377174e-02
-3.891140310493548804e-02
-2.822932649328871099e-02
-2.590782932470443375e-02
-2.628987818058181256e-02
-2.722840706745353195e-02
-2.812551452096114998e-02
-2.559056795114309640e-02
-1.460928273917768208e-02
6.064738788173016509e-03
3.171320584619832794e-02
5.507737425734471337e-02
7.091250813875953074e-02
7.745242434371248097e-02
7.519553948651598596e-02
6.615127296891323838e-02
5.522505943915616278e-02
5.075112321023908524e-02
5.926332033720369680e-02
7.690780907432193114e-02
8.881460297257849634e-02
8.169856290683652489e-02
5.743978242712675930e-02
3.143919489763963293e-02
1.743291303928228009e-02
1.631306369390397512e-02
1.970316577299311561e-02
2.090278629318113868e-02
1.985998484556529206e-02
1.902112173799451120e-02
1.797657382058583803e-02
1.417408357811078198e-02
7.618531057277489610e-03
2.143588337098040544e-03
1.087830614966978733e-03
3.211051153048214216e-03
4.233335510946762727e-03
1.938898279882467560e-03
-9.944898958050478553e-04
7.051814448483231454e-04
8.981545000319718711e-03
1.785211823256717054e-02
1.638506721904435873e-02
-7.431061253283118527e-04
-2.585492963099691663e-02
-4.430461525167991160e-02
-4.857000146629627396e-02
-4.435718957232746840e-02
-4.247714996914724733e-02
-4.725581730225089649e-02
-5.432795670659116422e-02
-5.764501238754322215e-02
-5.542766092707948622e-02
-4.866173671318951843e-02
-3.668303223557119880e-02
-1.783654049684761655e-02
5.360983528459858927e-03
2.521790716158736623e-02
3.545646221282146293e-02
3.731653167708490204e-02
3.692577508682274440e-02
3.767671495958350991e-02
3.779015132420698170e-02
3.510315172848386261e-02
3.127190164002960349e-02
2.992663398451214998e-02
3.238920699077516008e-02
3.678752838092804595e-02
4.063300478553494299e-02
4.270861626039345466e-02
4.246970214513318131e-02
3.925463874103041206e-02
3.320549676510725634e-02
2.636131444383831707e-02
2.173238791903576300e-02
2.092832523264708325e-02
2.280463488084874535e-02
2.456542268647199032e-02
2.429442976047984162e-02
2.236829919924185686e-02
2.045590471041894287e-02
1.963486871973424072e-02
1.976407729804832702e-02
2.005984312066830949e-02
1.948128992299288237e-02
1.664946922025543202e-02
1.029327101458491975e-02
6.513551684897674401e-04
-9.498338998129750993e-03
-1.610039106348652369e-02
-1.705938498253576144e-02
-1.421446698001957443e-02
-1.156886049771917169e-02
-1.161190530523069191e-02
-1.376678289059039481e-02
-1.604704783007732463e-02
-1.725152931081123941e-02
-1.738298742562743512e-02
-1.685848704594284167e-02
-1.602542079010579879e-02
-1.504008892674307818e-02
-1.338726149931709214e-02
-9.719262309532097216e-03
-3.568913337735213440e-03
2.326933941906257630e-03
3.321721641842461260e-03
-1.932778313056258447e-03
-9.127445937544807070e-03
-1.330986855272248831e-02
-1.530295083672935166e-02
-2.067525902706032065e-02
-3.213039979940190277e-02
-4.491590732662024271e-02
-5.127052019235724123e-02
-4.908064299889025595e-02
-4.480725625241290672e-02
-4.701456669540799577e-02
-5.736434109958822580e-02
-6.896400149952103265e-02
-7.378982653288261584e-02
-7.054697167606990837e-02
-6.406254009465356392e-02
-5.785107548237441999e-02
-4.976434942593303823e-02
-3.593360985096578919e-02
-1.702290173816144517e-02
1.491543837997716046e-03
1.435020697136761211e-02
1.990356647841161689e-02
1.949341783932931338e-02
1.604500451571396619e-02
1.282738566819308611e-02
1.067810397436957937e-02
5.923759510040377783e-03
-6.480596182926090867e-03
-2.636553980778335790e-02
-4.613223288003048123e-02
-5.639599379648035232e-02
-5.346200118832501735e-02
-4.081316454488408130e-02
-2.468059372915016106e-02
-9.977171029521548357e-03
1.496468468357224461e-04
3.664119993213046066e-03
3.722130121510975470e-04
-7.235214150590708534e-03
-1.496700706724939101e-02
-1.894225669649891169e-02
-1.671444620084296812e-02
-7.584860714294783604e-03
6.894462553123576094e-03
2.314732557732626650e-02
3.785305739879935016e-02
5.039163013077596620e-02
6.196811479922742505e-02
7.181834273635614996e-02
7.548909124574888774e-02
6.856951393377465342e-02
5.243039537325378668e-02
3.506190333862048425e-02
2.528281714950771086e-02
2.627859140908024235e-02
3.459318945926616318e-02
4.390855460073085637e-02
4.892222465808136744e-02
4.722709578556202881e-02
4.012062041133582918e-02
3.205097097642338466e-02
2.722161520025053946e-02
2.542174674581590410e-02
2.224715498815110770e-02
1.432767910557899114e-02
3.325593541568368228e-03
-5.948836951805379185e-03
-1.027843260691096647e-02
-1.024477505848813384e-02
-9.128037542232514401e-03
-1.093219538152168623e-02
-1.843873308060426167e-02
-3.097967597592686528e-02
-4.361430009276095338e-02
-5.032040671566748169e-02
-4.957304557137688639e-02
-4.584758072042482285e-02
-4.386686951201192175e-02
-4.207052459027663810e-02
-3.438044951722075970e-02
-1.914384660127385271e-02
-3.972065126790712795e-03
5.375561457224669855e-04
-8.873896717698377332e-03
-2.630767910982845584e-02
-4.498112493985354648e-02
-6.410955332526904749e-02
-8.579899123776241199e-02
-1.080330455955482161e-01
-1.248342571585874805e-01
-1.333628788630470130e-01
-1.378915712887610889e-01
-1.456630510403536527e-01
-1.598993561238821193e-01
-1.769143216959053189e-01
-1.889424645897460620e-01
-1.899366674040101621e-01
-1.797660032583054679e-01
-1.628800783481005321e-01
-1.427515175364631461e-01
-1.190230201857779418e-01
-9.108518025103154447e-02
-6.215373815814630165e-02
-3.637189288124942355e-02
-1.230872363890439351e-02
1.636009464347297493e-02
5.139967910330583978e-02
8.418387613227013011e-02
1.030262064616159767e-01
1.054503029675550457e-01
9.981916166747697994e-02
9.518756169476608187e-02
9.342144151282731623e-02
9.185573723818095393e-02
8.911819074309371147e-02
8.534574307159277506e-02
7.933301272547785277e-02
6.920063741276724634e-02
5.593997172635847837e-02
4.425392814111942658e-02
3.893511740745045357e-02
4.063599404892675321e-02
4.539772024310047283e-02
4.825132835953348243e-02
4.710568297984077391e-02
4.293078966079631048e-02
3.644244016890509086e-02
2.595492623079574679e-02
9.945673862985428271e-03
-8.900609442254596090e-03
-2.462898708353265798e-02
-3.354333250839045683e-02
-3.673826698742456431e-02
-3.681475086976679356e-02
-3.493314923991563264e-02
-3.229849743092137043e-02
-3.172876516391608809e-02
-3.526611784214762901e-02
-4.131107249566408346e-02
-4.599439552498432032e-02
-4.670460088189189868e-02
-4.227891181655833719e-02
-3.016500554068504009e-02
-6.794432252622864890e-03
2.706323094067525012e-02
6.313213792013332160e-02
9.034613788875067719e-02
1.023854122312768261e-01
9.959835252274558404e-02
8.561881008597850562e-02
6.524490272769563337e-02
4.499845477278269917e-02
3.169259082385816190e-02
2.786446522460973504e-02
2.954291915641832356e-02
3.017614303087415989e-02
2.674924397402976203e-02
2.139769945255967643e-02
1.762731715728586140e-02
1.632349535893088538e-02
1.572545756717569354e-02
1.426398774349385556e-02
1.237621229561334385e-02
1.129014746876809763e-02
1.071203666020107900e-02
8.798736103091692878e-03
4.542960889906823979e-03
-9.069083343234869699e-04
-5.723034466155058238e-03
-8.969791201247953594e-03
-9.860616089624929873e-03
-6.668866170308847610e-03
1.931860839578385634e-03
1.438485750393979010e-02
2.608618225542074648e-02
3.218922400423884778e-02
3.068059300402613265e-02
2.311160788041430325e-02
1.274405194122642249e-02
1.908406864915854727e-03
-9.089315848003189091e-03
-2.061308967076924681e-02
-3.173536843961365789e-02
-4.046518186302037329e-02
-4.603464078833931217e-02
-4.985192829799409142e-02
-5.338374573429292141e-02
-5.590750162938898371e-02
-5.550658257101392240e-02
-5.188105395639440454e-02
-4.684648425246648595e-02
-4.180295723521162271e-02
-3.588352373421631325e-02
-2.786429791645823190e-02
-1.984697567323294790e-02
-1.728514081495713048e-02
-2.349397903825722889e-02
-3.454023203169111211e-02
-4.171235287099363948e-02
-3.975196487765110531e-02
-3.133047942277201320e-02
-2.300225307298623886e-02
-1.826414906765334856e-02
-1.533419230059601159e-02
-1.031488774305284149e-02
-1.177068090943795761e-03
1.079732964324230451e-02
2.212558622515145221e-02
2.939564044019953720e-02
3.164992594245177177e-02
3.172476636766677349e-02
3.465198302821818899e-02
4.303022576457976589e-02
5.372938947950559041e-02
6.057604939258919019e-02
6.062790642215887954e-02
5.635120352297291052e-02
5.116726708373825483e-02
4.480516511844233329e-02
3.474235570922568073e-02
2.106671170943066190e-02
7.370498418815847087e-03
-3.833644403035739966e-03
-1.498012987769817804e-02
-3.118728200138147152e-02
-5.407908476521532809e-02
-7.906541578726229702e-02
-1.001954272310530830e-01
-1.175949651880454083e-01
-1.377771995117121062e-01
-1.648772358678459726e-01
-1.933923253462989933e-01
-2.126600012391866856e-01
-2.183017131994031967e-01
-2.163625954044718913e-01
-2.154486091977071693e-01
-2.173853827097337599e-01
-2.171190131101096710e-01
-2.093625623285401971e-01
-1.924565582615468951e-01
-1.668076384919860156e-01
-1.331002789133279296e-01
-9.363905518277040874e-02
-5.439389621860057922e-02
-2.358460996899096329e-02
-5.262937475744480786e-03
7.713083279031071604e-03
3.146817591487584276e-02
7.566780598292793814e-02
1.286740643901734538e-01
1.637782686307545921e-01
1.648696998995302920e-01
1.430559263189109254e-01
1.235702368917008659e-01
1.187762779976837407e-01
1.195799850979368806e-01
1.122831281299437323e-01
9.665078556535575127e-02
8.402420045318646780e-02
8.206310888144874305e-02
8.640581812198544487e-02
8.670533624174761589e-02
7.729422526326447385e-02
6.098691821744596508e-02
4.453418970496195173e-02
3.230680143548109867e-02
2.443435852526492508e-02
1.961463687263740457e-02
1.797379753795076696e-02
2.053453168983635641e-02
2.678452930143329636e-02
3.400239028925428064e-02
3.925328778223329679e-02
4.157790325179373803e-02
4.202768580287757905e-02
4.197758824567514313e-02
4.179687499322862210e-02
4.091047732888732080e-02
3.860757410039789006e-02
3.468765197859152716e-02
2.953467303410300948e-02
2.362537287016947679e-02
1.714990782531525607e-02
1.040738831999167557e-02
4.127062909728846860e-03
-1.477581180142175862e-03
-7.700930215353143232e-03
-1.603930451578387817e-02
-2.537746420939971520e-02
-3.150338407196964785e-02
-3.062315581121454258e-02
-2.346332621553960315e-02
-1.525465782692270872e-02
-1.142781250516433644e-02
-1.367304596257797739e-02
-2.019767309208425968e-02
-2.884891245314514380e-02
-3.875335476330853818e-02
-4.890207382164706712e-02
-5.674024323899436173e-02
-5.959746592699118051e-02
-5.744207663840093792e-02
-5.400125011330760699e-02
-5.558435280405132906e-02
-6.772734224033176431e-02
-9.009035505203992489e-02
-1.138126792013461897e-01
-1.268056848427105976e-01
-1.243659007006382017e-01
-1.138882609060356821e-01
-1.072169678156136702e-01
-1.084387521191456788e-01
-1.108992034479587413e-01
-1.068753917994819669e-01
-9.823844685859274561e-02
-9.464846955375928739e-02
-1.009731179059016049e-01
-1.096341831629308039e-01
-1.077199714773304923e-01
-9.032867475036449045e-02
-6.482806221320581985e-02
-4.259537129111554826e-02
-2.874106697032453861e-02
-2.052080064370299245e-02
-1.371623729026542199e-02
-7.671159051402769505e-03
-3.659615157395778445e-03
-1.130531177217701175e-03
2.111824512889329958e-03
7.342164832806040257e-03
1.481933983027491387e-02
2.542290071346312366e-02
4.008569787999329698e-02
5.764233656457518756e-02
7.474421356085295121e-02
8.825161456824706652e-02
9.747827178388476788e-02
1.041532116992836265e-01
1.096551684099568991e-01
1.117259328522653694e-01
1.049943907192234793e-01
8.646998434558467173e-02
6.043400761806179411e-02
3.631117411774358733e-02
2.108670293505299914e-02
1.467511168379411618e-02
1.275988037154253407e-02
1.222190321650080264e-02
1.247067128749207963e-02
1.314984839741097609e-02
1.318939537755984930e-02
1.236186345347978395e-02
1.175299220577232656e-02
1.115689572277645154e-02
6.795971696957232855e-03
-5.927790979559978760e-03
-2.600179473820776743e-02
-4.472159914021694993e-02
-5.288274591335944547e-02
-5.033814978151646136e-02
-4.605058502628189832e-02
-4.782666388427669196e-02
-5.406650899226504020e-02
-5.691468227761396076e-02
-5.178775371063566724e-02
-4.159100773601662887e-02
-3.174717168728641292e-02
-2.339621141578717908e-02
-1.348992565134485982e-02
-7.407104464531074489e-04
1.166121378814218359e-02
2.018045882984042388e-02
2.448193277555857014e-02
2.431843856062583173e-02
1.576434421896791976e-02
-4.946790031653578584e-03
-3.416452320787880664e-02
-6.126112152388588084e-02
-7.746854859750793021e-02
-8.231844484317156485e-02
-8.117587498357511921e-02
-7.876873788957530764e-02
-7.592941365949731902e-02
-7.081856953275959821e-02
-6.169226754446095751e-02
-4.863861500924471226e-02
-3.360656621158744639e-02
-1.924594163032886801e-02
-7.168696548953463858e-03
3.716923492737033048e-03
1.723725886887119557e-02
3.695969176407155193e-02
6.210172583036810412e-02
8.703778664638184281e-02
1.056492470160420166e-01
1.154244622980018509e-01
1.167678718687327477e-01
1.102061993746750457e-01
9.655669720608886508e-02
7.907267260994313429e-02
6.273485875076706408e-02
5.064514354546358760e-02
4.245736222409289551e-02
3.664357746799178778e-02
3.273887458813177359e-02
3.053380516708810791e-02
2.817473876844378208e-02
2.236428678619320487e-02
1.075802560336422235e-02
-5.692531947776977366e-03
-2.248367266685547330e-02
-3.415301981726391600e-02
-3.849359016165179725e-02
-3.882869713374420551e-02
-4.123826840265381460e-02
-4.851263244233536276e-02
-5.701340548513034179e-02
-6.020981462146128560e-02
-5.528325703616326914e-02
-4.555905380892559531e-02
-3.624692465776881839e-02
-2.885621656170949886e-02
-2.121549822362310891e-02
-1.250023312286529034e-02
-5.521248247542591761e-03
-2.660931834632077053e-03
-1.945251194423742568e-03
2.973692489505680783e-04
4.349717430735578622e-03
7.530296220089910397e-03
9.018350492495275095e-03
1.117678151092654434e-02
1.544000384755428099e-02
1.950551372927392807e-02
2.045260153062923927e-02
1.903858094927939060e-02
1.831276672094823282e-02
1.824973804540299532e-02
1.437085099031888517e-02
2.834669155618609309e-03
-1.449067073538645896e-02
-3.127205614491399693e-02
-4.254130531947471205e-02
-4.856432207107155147e-02
-5.336574897735948259e-02
-6.036773856199467020e-02
-6.966382137752827330e-02
-7.875912043666169482e-02
-8.480383908737633425e-02
-8.560746426296748923e-02
-7.937785168703395677e-02
-6.500631498013842435e-02
-4.316405569357275457e-02
-1.644473912862605414e-02
1.214541271726000959e-02
4.037229593667361616e-02
6.578034267905891186e-02
8.416865562363257114e-02
9.082758533241115650e-02
8.430068655397437993e-02
6.851785664615736571e-02
5.056772087898431939e-02
3.615815002358661878e-02
2.691796288887926200e-02
2.122128459738199802e-02
1.655202201074424534e-02
1.049632847051185092e-02
-5.598070770439266333e-05
-1.878964029287650411e-02
-4.657378577352170451e-02
-7.728335994808099851e-02
-9.903042044362875274e-02
-1.027291017436847836e-01
-9.045314807341453545e-02
-7.396646979891137452e-02
-6.427628705511283236e-02
-6.341259313330774305e-02
-6.627934166093145396e-02
-6.830149465810783638e-02
-6.911935232364471715e-02
-6.908865728795365868e-02
-6.457153158649861502e-02
-4.900817909387140958e-02
-1.959440406985591548e-02
1.724683250102740720e-02
4.816578758946416655e-02
6.244058807081377671e-02
6.010922681726077466e-02
5.012457046798030058e-02
4.068892312777215581e-02
3.303126126404822699e-02
2.487281817797366845e-02
1.688251418130660292e-02
1.242573641619896044e-02
1.167393164924312478e-02
9.556043936361023616e-03
1.219161808308562300e-03
-1.196288237062593379e-02
-2.330864167821326133e-02
-2.740104028275456780e-02
-2.498269525324853940e-02
-2.144163041004978204e-02
-2.103925558536411458e-02
-2.281751243049967570e-02
-2.178241807253718243e-02
-1.371434988430596941e-02
1.085850329919152944e-03
1.835486610061105514e-02
3.349077549069363197e-02
4.402700133532388982e-02
4.896670620998078149e-02
4.746572553787611198e-02
3.960282123269891902e-02
2.799197482831998485e-02
1.706807990677660508e-02
9.770605079089824882e-03
5.114308245109319695e-03
-2.121119569112005221e-04
-7.816418764723232979e-03
-1.604965799932757398e-02
-2.257318022075728223e-02
-2.725099468415541348e-02
-3.200342936856252762e-02
-3.880954395419754233e-02
-4.816231154859678537e-02
-5.820583218751137350e-02
-6.480231814473826069e-02
-6.377375144467964385e-02
-5.437330366828063699e-02
-4.047883406813632817e-02
-2.802847679577781526e-02
-2.112049974613315964e-02
-1.974448840255210377e-02
-2.024089146176445003e-02
-1.827146157572845028e-02
-1.275339831808785032e-02
-7.503987961437998816e-03
-8.058742940709800670e-03
-1.569687972819203484e-02
-2.495849688206402267e-02
-2.863693731363421008e-02
-2.582509794157751212e-02
-2.361983487988865774e-02
-2.941491417096106856e-02
-4.233420330036336693e-02
-5.436877694487437379e-02
-6.012883097960567552e-02
-6.325773363326349374e-02
-7.176381299699877148e-02
-8.812023025932888554e-02
-1.057106245854383397e-01
-1.152615400063691925e-01
-1.137247606523075771e-01
-1.058830134622239516e-01
-9.749227298591894852e-02
-8.831169804060237660e-02
-7.278535157355692231e-02
-4.666030914849075839e-02
-1.180834688106118489e-02
2.465889314141140112e-02
5.423153754224791651e-02
7.030020279138207706e-02
7.100317594136909549e-02
6.149995807253447189e-02
5.181114982638165140e-02
4.905958222006494979e-02
5.167871690785025285e-02
5.303377346117360558e-02
4.980706894442668564e-02
4.413519390510300261e-02
3.796587594091012374e-02
2.908493343402495171e-02
1.477814575793437619e-02
-2.676452025327442572e-03
-1.711527948904578711e-02
-2.502984892031007505e-02
-2.874700833002021699e-02
-3.239306004582778037e-02
-3.680893184800761164e-02
-4.020130485569150397e-02
-4.224890416885459382e-02
-4.460076494824857102e-02
-4.670698950087941864e-02
-4.317745820219098807e-02
-2.764391579847041633e-02
-3.463327280058313765e-04
2.901566741670111305e-02
4.817039451205413353e-02
5.286369261763295552e-02
4.935931043069113205e-02
4.630429492468503272e-02
4.663363463025369665e-02
4.863922530076990325e-02
5.175141574836234631e-02
5.738070246122545237e-02
6.462155620080459184e-02
6.895673886166325817e-02
6.702346723692423347e-02
6.073746603570123054e-02
5.464809416150415849e-02
5.009155649228554802e-02
4.405971601879775379e-02
3.388383636364743906e-02
2.113506135347969356e-02
1.003293313354805018e-02
3.150075985931398599e-03
-4.950152668637222177e-04
-4.071339350662899099e-03
-1.069823551570751874e-02
-2.181296015192182511e-02
-3.611597750186521655e-02
-4.971523924291637586e-02
-5.852209269149376974e-02
-6.156381832246944630e-02
-6.161392003790162886e-02
-6.201224965788136589e-02
-6.339474078254170308e-02
-6.418220531260362960e-02
-6.354900070819068103e-02
-6.261349891338820195e-02
-6.264895599403731696e-02
-6.318011050777602722e-02
-6.238063397591307735e-02
-5.868393703946894052e-02
-5.119585570643614414e-02
-3.906601956836356498e-02
-2.208155089398014873e-02
-2.251097343997004573e-03
1.675921496465432314e-02
3.247321394473225847e-02
4.462850549236535569e-02
5.311911461240073629e-02
5.676159118342038318e-02
5.485844606701538451e-02
4.854342208879063036e-02
3.983690718764599376e-02
3.040115295195383940e-02
2.175653987972741427e-02
1.574387866013047393e-02
1.359764571744385281e-02
1.405881131093851544e-02
1.272725579332629510e-02
4.607423840921044851e-03
-1.129751812848584815e-02
-2.988867324037836407e-02
-4.344190947285595655e-02
-4.770602946750800849e-02
-4.452552287543084381e-02
-3.885674996217491212e-02
-3.423080316380615329e-02
-3.157975519729122604e-02
-3.134980195763668875e-02
-3.469751376109549840e-02
-4.138229691552892248e-02
-4.717216588794563570e-02
-4.538435567697569895e-02
-3.236948854510344337e-02
-1.088538795602551380e-02
1.275265128545759533e-02
3.374131396677843009e-02
4.968643043479811783e-02
5.785283106994271868e-02
5.461007134868003238e-02
3.902709120102693108e-02
1.612214401277596923e-02
-4.866895398190211261e-03
-1.656573449191341835e-02
-1.894272515270132781e-02
-1.926039216000406673e-02
-2.572648182903768121e-02
-4.016816606561153524e-02
-5.755029642916472538e-02
-7.328475135497329596e-02
-8.885268074335983535e-02
-1.076360507574631448e-01
-1.265886316918135301e-01
-1.359130167454934979e-01
-1.285100717563138761e-01
-1.082415955662024143e-01
-8.672779916110562315e-02
-7.096091689073412423e-02
-5.567946394391746351e-02
-3.133664096596379400e-02
7.673927259004009738e-04
2.701734833849947504e-02
3.782020958402350364e-02
3.988845273317560836e-02
4.725991612841447254e-02
6.401105993761592450e-02
8.155734864549371577e-02
9.050206179825509567e-02
8.902653865711981918e-02
8.041957307540641142e-02
6.844725146812699612e-02
5.682260079985909651e-02
4.894823423791644368e-02
4.520274503126030241e-02
4.222078124727850212e-02
3.704004038471106486e-02
3.108752398067406511e-02
2.838976167979474080e-02
3.036994013424915845e-02
3.404114830325262464e-02
3.540537220430077514e-02
3.334471695052811102e-02
2.975199117423453499e-02
2.679807499364720430e-02
2.491997287707286429e-02
2.334267872479163161e-02
2.181437458029780729e-02
2.113353450426964583e-02
2.192920845692741816e-02
2.354416130776798913e-02
2.452683437716362061e-02
2.394151461196522210e-02
2.192920000051689147e-02
1.907412269246514663e-02
1.502161363042428879e-02
7.314035261425264230e-03
-7.992626763960486089e-03
-3.333294804277545792e-02
-6.646206824111967892e-02
-1.004774613468119859e-01
-1.276510322835155420e-01
-1.440212376213337031e-01
-1.511930695587494489e-01
-1.544428840227707600e-01
-1.589331826372871181e-01
-1.663897719950272469e-01
-1.737130074548098035e-01
-1.745405282204298969e-01
-1.637787585459022921e-01
-1.418213762920342291e-01
-1.136138894791339504e-01
-8.311158172542214284e-02
-5.026340545233201618e-02
-1.454801044636007401e-02
2.052312232558146238e-02
4.886500029065637268e-02
6.702459099585057756e-02
7.594793721109968643e-02
7.831714663050680370e-02
7.655635542782883440e-02
7.371324338835757994e-02
7.393573805283333578e-02
7.965545572974687405e-02
8.792051257830874045e-02
9.134644642553027549e-02
8.460885408037158162e-02
6.983495181109684868e-02
5.443006525731160922e-02
4.382365064519144066e-02
3.752947485970631325e-02
3.227911761860138146e-02
2.743246001286809080e-02
2.575414493634500812e-02
2.874120232948948819e-02
3.269748767936156431e-02
3.130486639446213720e-02
2.242150785089957327e-02
1.097034653878043928e-02
4.163979187505204016e-03
4.657568223937692126e-03
9.203793906617255272e-03
1.309598631412138212e-02
1.461974277045546833e-02
1.545759111292551585e-02
1.783168869505047036e-02
2.159276412804279899e-02
2.405189904343791457e-02
2.268950509052059666e-02
1.778254878337308040e-02
1.224969889339172502e-02
9.333356989777403384e-03
1.047440244795684421e-02
1.456788999733765050e-02
1.849285804104586900e-02
1.864108944440869345e-02
1.303528939385300775e-02
2.893465053646399401e-03
-7.921041533520410335e-03
-1.569371322140641206e-02
-1.947163536894354341e-02
-2.101206052968696003e-02
-2.282559228063921544e-02
-2.678974166879836624e-02
-3.349759598939796440e-02
-4.106381507236370881e-02
-4.475491223490185577e-02
-4.007335578449022773e-02
-2.744770808736599760e-02
-1.275973937465577773e-02
-2.193488275136757509e-03
2.415725856387438905e-03
2.150057640038183400e-03
-2.971318435587189284e-03
-1.333311764545121181e-02
-2.554850693887478902e-02
-3.268664218318533682e-02
-3.029652526488956291e-02
-2.043200701272028519e-02
-8.872279780397254040e-03
8.421612512824611096e-05
5.668451150492256375e-03
9.388407459403148858e-03
1.281518390737760790e-02
1.588329090820746886e-02
1.702387027026769362e-02
1.552590000088693335e-02
1.349583002502349055e-02
1.417903922956004724e-02
1.800115262908545330e-02
2.157664664047072994e-02
2.132199631617986979e-02
1.673523362667542203e-02
9.348687769034656758e-03
3.849363413844687646e-04
-8.730571514245197978e-03
-1.505902090881710426e-02
-1.608119165415562365e-02
-1.315973203520441094e-02
-1.139245131573701254e-02
-1.521030655860173934e-02
-2.463221688454826294e-02
-3.640105273673902020e-02
-4.849742460962531976e-02
-6.233196367893602263e-02
-7.940078435316166861e-02
-9.638320978637578140e-02
-1.058467363278774442e-01
-1.032727042307273885e-01
-9.169168948764221116e-02
-7.663033082272810437e-02
-5.804386850381518248e-02
-3.267900699640807760e-02
-5.059287724234396398e-03
1.103580799132604720e-02
6.862624187290049249e-03
-9.768364988022420689e-03
-2.210414314074089087e-02
-2.088847987461361910e-02
-9.318730257560556979e-03
5.128280793419173061e-03
1.787092303656114337e-02
2.672645173203751917e-02
2.998363693640225883e-02
2.779555172228781804e-02
2.338448455890910355e-02
2.063374007557521733e-02
2.075746884812903342e-02
2.224219253598125681e-02
2.373033540372699104e-02
2.565094461137360643e-02
2.822874128561764229e-02
2.901736589883562381e-02
2.469048836653420578e-02
1.585240436609742370e-02
7.990008310091896437e-03
5.889143066302202772e-03
8.112074849547760633e-03
8.873054564114506854e-03
5.124554859089055017e-03
6.464987778303024624e-05
-6.672286537056483849e-04
5.184586574106034990e-03
1.509222024136936888e-02
2.491056048752729457e-02
3.226089695588924694e-02
3.718305401339958016e-02
4.059626011728776490e-02
4.270913285151953231e-02
4.283197038900827397e-02
4.040019208488746655e-02
3.592110702326749283e-02
3.078183688898564890e-02
2.586651934890682458e-02
2.008339501432474319e-02
1.077450112350763524e-02
-3.154241807304413760e-03
-1.819901432310079906e-02
-2.765112288560212309e-02
-2.724752964468687630e-02
-1.949220310138051471e-02
-1.207039325326657656e-02
-1.175270514833012814e-02
-1.927639026978370321e-02
-2.963959891032594968e-02
-3.729719196437175643e-02
-4.078882111127928728e-02
-4.187723769450182876e-02
-4.121741450083985653e-02
-3.721633737380591195e-02
-2.960165058405341693e-02
-2.172921787212590133e-02
-1.777412261251316503e-02
-1.885720694955098087e-02
-2.305176441211484809e-02
-2.813139910394836518e-02
-3.316260722594655680e-02
-3.786527597212356600e-02
-4.124306597702389471e-02
-4.104898290843627534e-02
-3.480329070227052013e-02
-2.201128052328671023e-02
-6.127638174400936756e-03
5.924031942160891580e-03
8.094681401090238551e-03
7.635446374021923402e-04
-9.053021075097193726e-03
-1.500437120063023363e-02
-1.822835831075082097e-02
-2.487516965182817730e-02
-3.763530099601052059e-02
-5.251026656274290771e-02
-6.406269354761232049e-02
-7.071610944524786557e-02
-7.317021913778209985e-02
-6.986736253218241155e-02
-5.703787941103281162e-02
-3.357261315692754156e-02
-4.714904484208152537e-03
2.005366867268175424e-02
3.437337970871167520e-02
4.124152792353050212e-02
5.015186982654797759e-02
6.647135760198076559e-02
8.540315471044759854e-02
9.748201772141047716e-02
9.730395207769983179e-02
8.577942023438409058e-02
6.774210092445943909e-02
5.017067389306953396e-02
3.981148835740983688e-02
3.849765092562065782e-02
4.096095453162545280e-02
3.965620264803531442e-02
3.219456575072522642e-02
2.286200808830142484e-02
1.691929010266316272e-02
1.498327565907099646e-02
1.371069902968914331e-02
1.068756474183898096e-02
6.879050944581232077e-03
4.280525489803933825e-03
2.939399835923752619e-03
1.509301249451417207e-03
-2.885310304361803427e-05
2.886746085004040846e-04
3.904663886151036288e-03
9.377331807433787400e-03
1.329550700568361658e-02
1.320908244923682875e-02
8.967169663022769160e-03
1.915975653363919274e-03
-5.508281374883022483e-03
-9.375003662848362812e-03
-5.658909062595451553e-03
6.208375696167653390e-03
2.156030530385643837e-02
3.317750977339765928e-02
3.573898413152824111e-02
2.799464034739278240e-02
1.230745851179458963e-02
-6.718244996737452075e-03
-2.395520283174609050e-02
-3.532616344691149463e-02
-3.809145460189625881e-02
-3.059680378585546978e-02
-1.380429288507382599e-02
6.107272619114145762e-03
1.874389485270798461e-02
1.639958316366851507e-02
1.312209369216532293e-03
-1.540415620143585108e-02
-2.366337872802528469e-02
-2.271848563273025715e-02
-1.856095212694940447e-02
-1.456579905363284896e-02
-7.998878920218201183e-03
3.653231612458882061e-03
1.652807501483268340e-02
2.367637667378531124e-02
2.316094844416531628e-02
1.980259050535883997e-02
1.882750138656623731e-02
2.041842016680291833e-02
2.149727361799273068e-02
2.060862945606491831e-02
1.902273130540583015e-02
1.821023173068614040e-02
1.851997202793967401e-02
2.015598735172733497e-02
2.323762966054452456e-02
2.603933463420748246e-02
2.487894362908768531e-02
1.758267214724085897e-02
6.589544150270568688e-03
-3.202268319813015782e-03
-9.981307471800891784e-03
-1.675848790064264279e-02
-2.658367523057508786e-02
-3.736026185962754154e-02
-4.334715211102239951e-02
-4.211159177584469088e-02
-3.885585388451993916e-02
-4.283595877136583269e-02
-5.927637151177864855e-02
-8.473011883054923365e-02
-1.095401938769825223e-01
-1.239015281391869228e-01
-1.226080008517785036e-01
-1.070435626547298902e-01
-8.438700891981588958e-02
-6.351643196244177725e-02
-4.956921523177497402e-02
-4.187856992934695100e-02
-3.705327565804351214e-02
-3.300073127284031127e-02
-2.898416395303602539e-02
-2.284025053933015290e-02
-1.103689913854252400e-02
6.931230610473217146e-03
2.590677225471942069e-02
3.936630641584790841e-02
4.637295609399599838e-02
5.240551608093318298e-02
6.268547647349256846e-02
7.600502535710434993e-02
8.601462156290058669e-02
8.757769750541451181e-02
8.068193993479390314e-02
6.883978029138518306e-02
5.556431531564625520e-02
4.312974657190139088e-02
3.340720301296402905e-02
2.794554051611957898e-02
2.667114777508550541e-02
2.750063178475624023e-02
2.806433233682454134e-02
2.741402119400346282e-02
2.553658460618268150e-02
2.200776715826257418e-02
1.646054944474902720e-02
1.031430384987554183e-02
6.647541865712265630e-03
7.557295409354189766e-03
1.205479696824825024e-02
1.690100477308723731e-02
1.916489395645583002e-02
1.791405995371451315e-02
1.422125128547713051e-02
1.026552626684896705e-02
8.107064404130450222e-03
8.357337172732341724e-03
9.520184367426697686e-03
8.909684920513905731e-03
4.789257201189767860e-03
-1.979909183047560365e-03
-8.453001070698193745e-03
-1.245847179910967127e-02
-1.544191798125107117e-02
-2.135605704061117188e-02
-3.119548141082616882e-02
-3.973539896153976958e-02
-4.045604854732806621e-02
-3.355555321126434815e-02
-2.599379334878431855e-02
-2.265783191811050756e-02
-2.014345099353695781e-02
-1.136260967061242938e-02
4.785725394012480850e-03
2.056984396933831533e-02
2.692301603571124052e-02
2.266070782308702430e-02
1.514086739435335088e-02
1.252599957133864426e-02
1.693045455212525627e-02
2.477703803166309351e-02
3.158641807525047751e-02
3.510530304042076832e-02
3.485840681329371860e-02
3.084336055562697521e-02
2.395910231380616803e-02
1.712551081419575946e-02
1.420873325749459973e-02
1.683084139758165426e-02
2.276545725942061629e-02
2.794270634641184831e-02
2.948761606459628787e-02
2.675991765659432170e-02
2.061682925438334396e-02
1.240526589187578022e-02
3.144639455172072197e-03
-6.844437209730224597e-03
-1.739692651475098148e-02
-2.766614009472892488e-02
-3.640103485691515567e-02
-4.329192857308820225e-02
-4.954077914393905518e-02
-5.657763422757599442e-02
-6.424332277396435642e-02
-7.040582265047697075e-02
-7.224462579959030351e-02
-6.798510366140236849e-02
-5.804080919779615322e-02
-4.498182341306344867e-02
-3.201016292954353415e-02
-2.077498447119709504e-02
-1.069113288446226460e-02
-7.956677530910763810e-04
8.205867785424151434e-03
1.478485355322042838e-02
1.906527684493012839e-02
2.255733342761100449e-02
2.488389442710075422e-02
2.270928300429272267e-02
1.371591070275874139e-02
9.923582010767659570e-04
-8.475196558607709513e-03
-1.020853995406402828e-02
-5.887502440603197343e-03
-1.268400189370940789e-04
4.926194939918888439e-03
1.086422668846314006e-02
2.012110636007092765e-02
3.275072568924775052e-02
4.515573796083750119e-02
5.152398259796889951e-02
4.796022449627884709e-02
3.647075376490431509e-02
2.452947155756860301e-02
1.974765031554496716e-02
2.397004958082098527e-02
3.172510072332239417e-02
3.468506864753580221e-02
2.884127586205270655e-02
1.785681295128191057e-02
9.264374278573085306e-03
7.862176767844619718e-03
1.301534279532176944e-02
2.063326805931822369e-02
2.590189211373120776e-02
2.528440329475861725e-02
1.876373960036838845e-02
1.056365724039980657e-02
5.616473280610454442e-03
4.517428789826609913e-03
3.234646925274272007e-03
-1.660908354365651842e-03
-8.851809373890167504e-03
-1.436661161937694171e-02
-1.659547681510084235e-02
-1.735743998714947903e-02
-1.834421763572020858e-02
-1.874878359503827016e-02
-1.731657583381798066e-02
-1.525174596851142442e-02
-1.575058330007956392e-02
-2.110584155008999457e-02
-3.062968779890153440e-02
-4.017964946469701482e-02
-4.312806042717312605e-02
-3.401089289033310675e-02
-1.371554265326007348e-02
9.499416799300781922e-03
2.609026235605442848e-02
3.247137310814098010e-02
3.181950091029954464e-02
2.930320779771810463e-02
2.814422438827579934e-02
2.907333909060429156e-02
3.122963780531353567e-02
3.321087470534655334e-02
3.407086251907699009e-02
3.333402859844177696e-02
3.024410073738154764e-02
2.433738889433583602e-02
1.718858664926972007e-02
1.186595630875268877e-02
9.342932027459286554e-03
6.674733964583519363e-03
4.606954984370048925e-04
-8.264514436883632284e-03
-1.405510038134157556e-02
-1.213199059964669042e-02
-2.693312847366692228e-03
9.531476585888040004e-03
1.895601353436489681e-02
2.256240233234089315e-02
2.110260749224876498e-02
1.758562826832685624e-02
1.406128695356858443e-02
9.530458625306095430e-03
1.219628317953590484e-03
-1.212950357405873612e-02
-2.860130576117312501e-02
-4.481217352982310581e-02
-5.904672183276253594e-02
-7.236791692246737073e-02
-8.633858346851852605e-02
-9.989462193121786959e-02
-1.092272738381243058e-01
-1.110691532582002705e-01
-1.057012596530835513e-01
-9.649697332862929022e-02
-8.673092423963373043e-02
-7.686761790246422754e-02
-6.472488045530000456e-02
-4.818232465927599351e-02
-2.757698097155912575e-02
-5.007724197661605689e-03
1.845777445941692435e-02
4.324975930085776105e-02
6.797708964275049615e-02
8.745007002351196101e-02
9.657082187292097275e-02
9.580700652191541378e-02
9.055888238924712785e-02
8.514505520424005269e-02
7.959007289754771453e-02
7.266077527879481746e-02
6.573709057852394899e-02
6.198150684408617467e-02
6.232822666815944490e-02
6.362858858087611091e-02
6.119608143798369038e-02
5.307533755309758877e-02
4.181083742193992397e-02
3.198830956450928603e-02
2.594560968453258828e-02
2.197200865702068906e-02
1.663757427382458326e-02
8.402213762100652072e-03
-1.310273222286457290e-03
-1.003141332420358182e-02
-1.643174387860418806e-02
-2.061638122230356057e-02
-2.317860675289752301e-02
-2.457183507465842895e-02
-2.482078518702465417e-02
-2.313842535894734473e-02
-1.835566040958879624e-02
-1.052801597424218166e-02
-1.687512141744279895e-03
5.728663999826723308e-03
1.069052436003320450e-02
1.289276167360724201e-02
1.081452329324667817e-02
2.504841797017344322e-03
-1.040182194302891570e-02
-2.076189285700752452e-02
-2.078977111506646880e-02
-1.009258213221343216e-02
2.542855400729919849e-03
7.192816722713145719e-03
2.531039766667311786e-03
-3.529867132932192498e-03
-2.536071585062097712e-03
6.758186846454876037e-03
1.939943792846221537e-02
3.057244815574423555e-02
3.890693688689916135e-02
4.475880476057222945e-02
4.809159008174759831e-02
4.868405877117826935e-02
4.688424153806472483e-02
4.336867648606391318e-02
3.860200412240746143e-02
3.282418018381137725e-02
2.653096184630487214e-02
2.084255753996622218e-02
1.701258027316199239e-02
1.537346391243796240e-02
1.517282693980282968e-02
1.571931038590270585e-02
1.720889617362995200e-02
1.995350100710929775e-02
2.315019504741941403e-02
2.505650957456676681e-02
2.449390232100549444e-02
2.192552218628492089e-02
1.887073246765931175e-02
1.618691395023067608e-02
1.300109991950129662e-02
7.395663823419491682e-03
-2.075451881974018850e-03
-1.541908915340872710e-02
-3.064588988876055034e-02
-4.341962350603779247e-02
-4.824871246260001301e-02
-4.175759570407212851e-02
-2.569286366392368667e-02
-6.703224560195203408e-03
7.560332881992419540e-03
1.336877139746357052e-02
1.276798060089093072e-02
1.050183933545107903e-02
9.158259333789125003e-03
7.698817416750652377e-03
4.257600677925636040e-03
-1.039056040730986299e-03
-6.642122399765018267e-03
-1.184772382166415609e-02
-1.705723141605167484e-02
-2.176232724685270292e-02
-2.354673220176541765e-02
-2.006254499954922624e-02
-1.178236175677098603e-02
-2.051645091680497340e-03
5.825955105675869813e-03
1.111789001868794362e-02
1.498555197185073851e-02
1.797100474056625291e-02
1.933386124728053365e-02
1.895076849367730715e-02
1.853360884639356290e-02
1.999411721732565969e-02
2.317465069725474502e-02
2.617568667888763370e-02
2.782985376913287012e-02
2.894284949086649641e-02
3.064467756483566646e-02
3.217502217370782347e-02
3.140080218449833871e-02
2.763343932291490584e-02
2.277544260608790547e-02
1.900019273516698193e-02
1.627072317200966081e-02
1.323423403535920265e-02
9.868348686054408472e-03
7.689242684475032855e-03
7.295422290522369374e-03
7.144053799509204536e-03
5.407848098738742698e-03
2.112525161567116970e-03
-1.400082017517217253e-03
-4.499762137522222809e-03
-7.461756768421186001e-03
-9.581335289235239777e-03
-8.784204314184855533e-03
-4.452636513808269636e-03
3.641161932243126842e-04
1.382937924047073549e-03
-2.421417360957175968e-03
-8.136257490527779024e-03
-1.233994529943397214e-02
-1.344582266596522011e-02
-1.106653234129819502e-02
-5.968239542148009828e-03
-1.743269605278228778e-03
-3.951492793735825355e-03
-1.497054903921651338e-02
-3.004442193778190939e-02
-4.039650991307591754e-02
-4.120978662385083036e-02
-3.588251608622367028e-02
-3.166042971377941440e-02
-3.176118884518190633e-02
-3.296044907873616620e-02
-3.032267648772839219e-02
-2.245323440741536433e-02
-1.154696992265772520e-02
5.436471670586437953e-04
1.458474185399525995e-02
3.088049870492475674e-02
4.428240212761028888e-02
4.564564936945977175e-02
3.141649692190939119e-02
1.025375077508238267e-02
-3.942052121017886393e-03
-5.997652421897087596e-03
-3.359866739743373309e-03
-5.640228596685713594e-03
-1.414821152712921956e-02
-2.425153930759507345e-02
-3.517568914749728826e-02
-5.245922817981364672e-02
-7.936250722324018902e-02
-1.092284538709852315e-01
-1.299464474335801645e-01
-1.356003931780167815e-01
-1.310751761531173121e-01
-1.251339666109270721e-01
-1.218188232039426194e-01
-1.197019658818131438e-01
-1.168399513917038751e-01
-1.136341239359414113e-01
-1.111374032755770708e-01
-1.085797230974950706e-01
-1.033135727952572414e-01
-9.213505416010069060e-02
-7.198788800968326795e-02
-4.078463463569175634e-02
5.809128004794009148e-04
4.716299974941730311e-02
9.235981795350126089e-02
1.317213528330829220e-01
1.632355012827839680e-01
1.835807741318108421e-01
1.867299499803626861e-01
1.695008188566718421e-01
1.378675685399619599e-01
1.042141114798957741e-01
7.737154998181298982e-02
5.748854526485427940e-02
4.081146959469703073e-02
2.637605282500291026e-02
1.614687138287113771e-02
1.035166195434150151e-02
5.397304299745134433e-03
-2.733042458020284657e-03
-1.387117849773313732e-02
-2.361664777092564380e-02
-2.823143144233193971e-02
-2.867017505243872263e-02
-2.874928980261780287e-02
-2.996390892442092613e-02
-2.957364160761401586e-02
-2.353671579916680190e-02
-1.001646488548204109e-02
9.078836726760602938e-03
2.775553632187715072e-02
3.809342157666562728e-02
3.635600389916618380e-02
2.758947000743292022e-02
2.136576551568177343e-02
2.215679256230133551e-02
2.616272964504546064e-02
2.799964609319595052e-02
2.739200726479293704e-02
2.753478468655233546e-02
2.948194455765767649e-02
3.106907338226087487e-02
3.019571855031519605e-02
2.640892064068089268e-02
1.983129793065672303e-02
1.139258422831848985e-02
4.351454579819722876e-03
2.850495447826756346e-03
7.522715394958719506e-03
1.392238347895726099e-02
1.661846388968087410e-02
1.422248269363248115e-02
9.605153093755825974e-03
5.872251482810801962e-03
3.287777976450117785e-03
2.897366621291907422e-04
-3.244512783294990245e-03
-4.585355880327822951e-03
-4.752833202992644973e-04
9.154745624408426596e-03
2.046235133293183503e-02
2.938877597041839387e-02
3.559700701268046080e-02
4.149454573707925947e-02
4.759870787994846530e-02
5.088879057128983807e-02
4.870893906144457830e-02
4.285376719124106559e-02
3.823689424594479275e-02
3.785990833970911962e-02
4.017360525544803190e-02
4.131336071770604079e-02
3.896257590009535865e-02
3.374093468482857600e-02
2.768019677437469003e-02
2.237087710377088853e-02
1.854391402656123400e-02
1.626308101166521608e-02
1.469343920170844246e-02
1.226757087516781690e-02
7.919891919973501976e-03
1.936475694697327877e-03
-4.838528797798903255e-03
-1.209353019115732078e-02
-1.971924662662432465e-02
-2.686055567524069099e-02
-3.198852451132948305e-02
-3.358606924018746331e-02
-3.024813357823014776e-02
-2.085248898605930601e-02
-6.067155504374095731e-03
1.008474913228325429e-02
2.155227776966110037e-02
2.447834480518703421e-02
2.013843835633378695e-02
1.335838635260662779e-02
8.491485889089135652e-03
7.333541097745087042e-03
9.765773078789553169e-03
1.439001244271958385e-02
1.829606751256751193e-02
1.837324724139028503e-02
1.445711152580678518e-02
1.016983088502822902e-02
9.283548731289031908e-03
1.189949225176342024e-02
1.516465844428373927e-02
1.685827779615163904e-02
1.698174564195695582e-02
1.631753020779697777e-02
1.499773320915015300e-02
1.304035477244493493e-02
1.141357649902323412e-02
1.163221474118983530e-02
1.422935916062358953e-02
1.785405586374723755e-02
1.975595955736848819e-02
1.719106325227031870e-02
9.182161940914604359e-03
-2.116336778695700280e-03
-1.176668563486765740e-02
-1.471279774691704352e-02
-9.327214740569708326e-03
9.359888172809907245e-04
9.798110540181375824e-03
1.317852791317520103e-02
1.232442504782682233e-02
1.144270010942988539e-02
1.260013950721541355e-02
1.423831550054495063e-02
1.448983779113642220e-02
1.383498413178516767e-02
1.346130366794348263e-02
1.249929571330216094e-02
8.454672116603910437e-03
1.221460945116728536e-04
-1.064467661143230458e-02
-1.990546972558446606e-02
-2.426792282157919090e-02
-2.323920999520071376e-02
-1.961049065756479901e-02
-1.740965498002317383e-02
-1.876831564436757388e-02
-2.214806414003971102e-02
-2.372844499678083974e-02
-2.097050921673496507e-02
-1.458151218859056464e-02
-6.636869441061574518e-03
2.380649650534209273e-03
1.354778779514133336e-02
2.685576115753201404e-02
3.964799826214190914e-02
4.784839825787538803e-02
4.871352385673589219e-02
4.318947247966059555e-02
3.583651436350487884e-02
3.129917915727237210e-02
3.037605957630275938e-02
3.071275155804005161e-02
3.149139217458912787e-02
3.518468833539548091e-02
4.313210819528983525e-02
5.109999870562224877e-02
5.188774144343977907e-02
4.253455063571069672e-02
2.735232475267732402e-02
1.338465469496409252e-02
3.935843781142875711e-03
-2.985097614615903235e-03
-1.101136272564713810e-02
-2.182055635439446653e-02
-3.547957092621627229e-02
-5.257322957663922852e-02
-7.332706419803862452e-02
-9.418049036743093849e-02
-1.080250973089584288e-01
-1.103890210497018853e-01
-1.045271590068021644e-01
-9.814634901692849411e-02
-9.516681964289891438e-02
-9.265154242763042058e-02
-8.632670793764624095e-02
-7.719370997125697687e-02
-7.087220295256814462e-02
-7.084006329981851202e-02
-7.399829115131913160e-02
-7.369818214004539292e-02
-6.694742709625731147e-02
-5.843004410732792475e-02
-5.665906328405768966e-02
-6.457401360946080082e-02
-7.398452505515537569e-02
-7.227074564919593047e-02
-5.666240271882002494e-02
-3.951064862327914595e-02
-3.615004971567054026e-02
-4.904512436600955844e-02
-6.734656922877182983e-02
-7.994633135186543504e-02
-8.380096712175537366e-02
-8.091366085559412169e-02
-7.398082119172059989e-02
-6.619346361814126833e-02
-6.006500324710561250e-02
-5.479635484735417839e-02
-4.855025175053815506e-02
-4.385120749443831289e-02
-4.587001908352544149e-02
-5.315411783719246192e-02
-5.421931223073132161e-02
-3.745268090671177025e-02
-3.392163560456203271e-03
3.517123788276921292e-02
6.443067469645137602e-02
7.940459535596205987e-02
8.441642302342046433e-02
8.704237031597027163e-02
9.233464480776686079e-02
1.009843467216497287e-01
1.106217849344327542e-01
1.179366442744442522e-01
1.205951197338635261e-01
1.185174361585731723e-01
1.133686817101438454e-01
1.063899148111837750e-01
9.728784670449534822e-02
8.586994829617154712e-02
7.400924365024279250e-02
6.483349824818344931e-02
5.993765905574517661e-02
5.790993138856547623e-02
5.568723660155580624e-02
5.141572334763999663e-02
4.632844274008631608e-02
4.395619629480929103e-02
4.716729712588955264e-02
5.535174694769500608e-02
6.405324265127756989e-02
6.775622445184563414e-02
6.402639930535748702e-02
5.528896498298505741e-02
4.614103419116986210e-02
3.896954012270344159e-02
3.283192237384829903e-02
2.638896018304889152e-02
2.060682006680794598e-02
1.780517808467049073e-02
1.856817339799260100e-02
2.045939305269871278e-02
2.015363368467257971e-02
1.658927569421905779e-02
1.151282855009468781e-02
7.038438985008354555e-03
3.690973966520422461e-03
1.387306360553512002e-03
1.122883378979239568e-03
3.806210622078217039e-03
7.257168757941250166e-03
6.340022602222864304e-03
-2.169657995440798983e-03
-1.532494846794340247e-02
-2.604028401552299296e-02
-2.946346559205995086e-02
-2.639053278843822917e-02
-2.040841762214579136e-02
-1.311409791879368861e-02
-3.439388624357117043e-03
8.688019632063625347e-03
1.978250985547633581e-02
2.519788167470026971e-02
2.379580678237632266e-02
1.920494839563956571e-02
1.606797866146947307e-02
1.551639970233643223e-02
1.490612814482225774e-02
1.184308189379374224e-02
7.571489215408656014e-03
5.914322674398567875e-03
9.616644493042971614e-03
1.841281083570847979e-02
2.959822375739533731e-02
3.885251490444619621e-02
4.127767391045740475e-02
3.455093200632990830e-02
2.229240177278550214e-02
1.239943474261454015e-02
1.015377396633545225e-02
1.353409960008238565e-02
1.633998931719686867e-02
1.499499306147645920e-02
1.093237005883195348e-02
7.249146473366220068e-03
5.309170618726348143e-03
5.023675557750406639e-03
6.493548434150843776e-03
9.762733845180934789e-03
1.346409458321099102e-02
1.518348022750253858e-02
1.373365338529227396e-02
1.049339654115105831e-02
7.897802048454756474e-03
6.807051125642941958e-03
5.966645124122495723e-03
4.070503429146552984e-03
1.632664391666050537e-03
2.868747641250656358e-04
4.967235793340405055e-04
6.764613689043438675e-04
-9.035159196493501880e-04
-3.576211992739414258e-03
-4.619651164444118704e-03
-2.754669716387775445e-03
-4.462076521340369896e-04
-1.261571558277184858e-03
-4.952918786651137190e-03
-6.748174067650858886e-03
-2.499632220652962811e-03
6.268763823282084979e-03
1.359103132811530050e-02
1.504953049137453501e-02
1.140717341470319675e-02
6.447568557690387669e-03
2.911542007690658476e-03
1.307622691009288456e-03
1.278450587093477551e-03
2.457724006266610601e-03
3.964031456453115561e-03
4.269163985078904162e-03
2.540289936747888288e-03
-9.510763081175719561e-05
-1.512409228578542094e-03
-1.018631078738856024e-03
-1.336486274592825485e-04
-5.665427802063430652e-04
-1.915949549486999429e-03
-2.049083715209103033e-03
2.457069574795246432e-04
3.617479864913633603e-03
5.564412075569040092e-03
5.114320214578699751e-03
3.353560977581688564e-03
9.969704936410826723e-04
-3.809332147658329917e-03
-1.369435960630470232e-02
-2.730567445175455243e-02
-3.778707831161496472e-02
-3.824238436427523230e-02
-2.901486383019530671e-02
-1.811770105978359816e-02
-1.398557168025551731e-02
-1.886819384642640998e-02
-2.960793160590136086e-02
-4.296600581971404820e-02
-5.802192189593370630e-02
-7.342132693455978576e-02
-8.404033650971597103e-02
-8.168953697839000105e-02
-5.977155510816983819e-02
-1.858904066960817558e-02
3.219497915005885280e-02
7.650175416332111178e-02
1.001425317558058137e-01
9.931399674800986399e-02
8.175816128994956022e-02
5.943750568806664691e-02
4.037930924174285008e-02
2.650713027629029994e-02
1.620045953973555525e-02
7.578494964783025895e-03
1.339442190334899901e-03
1.669122924441198384e-03
1.253234296983883958e-02
3.164840212406970499e-02
4.957657483219961303e-02
5.652419489258668495e-02
4.985624282995419071e-02
3.455014768010673115e-02
1.793238482188880614e-02
5.649719171776125537e-03
1.119465932282408434e-03
5.031974889888836053e-03
1.384568229873467220e-02
2.093796796292970996e-02
2.175466458102134557e-02
1.787940384233084948e-02
1.486573416471469525e-02
1.612551475398480913e-02
1.999564276310585725e-02
2.286412071156288320e-02
2.386973812899426464e-02
2.552412733729069946e-02
3.014700985800220986e-02
3.665380067973812717e-02
4.110053854742267559e-02
4.022040135344517875e-02
3.457604856899432200e-02
2.839406116965687704e-02
2.588714002421659346e-02
2.714100553452434075e-02
2.777403241757399333e-02
2.338938672916175340e-02
1.436261675932072948e-02
5.491032352779538078e-03
1.003553214230311352e-03
6.541015125958891605e-04
2.045305651550135759e-04
-5.530637713398131074e-03
-1.944633073620167379e-02
-3.942204864534273184e-02
-5.796358488767863748e-02
-6.679846266316168124e-02
-6.426750051838234223e-02
-5.792010533255062543e-02
-5.793499163603427204e-02
-6.726338357450839522e-02
-7.905447999169255835e-02
-8.414209280058741747e-02
-7.987253563441712445e-02
-7.041869016634486056e-02
-5.972983852955146555e-02
-4.696722105631442185e-02
-2.899288320828516397e-02
-4.545750968928323303e-03
2.450395585381917596e-02
5.298244421516069141e-02
7.306972447667801907e-02
7.932368334574860236e-02
7.510288389472018211e-02
7.074296932347688693e-02
7.292912415238296531e-02
7.802547230310057091e-02
7.767788388085808404e-02
6.863201327318545208e-02
5.464068521700796849e-02
4.057607542585468796e-02
2.808760654071424182e-02
1.713527817330175868e-02
8.779596488777161728e-03
4.340291141844242542e-03
2.479747242817666175e-03
-8.670832961969277084e-04
-8.367343764167037984e-03
-1.740570986423822797e-02
-2.170602436150498304e-02
-1.759329002602461750e-02
-7.831966764769333900e-03
1.663498032276355433e-03
8.236124476380503670e-03
1.433998031914868881e-02
2.315401025970499974e-02
3.368748107842478579e-02
4.096972855534138092e-02
4.057045045282196144e-02
3.237999788547284152e-02
2.045206562894141475e-02
9.982345805264164484e-03
4.275079369089947179e-03
3.503663304676748851e-03
5.247494031670707840e-03
5.898929361164561604e-03
2.426728842448433454e-03
-5.961817199040797197e-03
-1.733820592605585242e-02
-2.816981951062138764e-02
-3.515311146713295809e-02
-3.695277335179181916e-02
-3.516171781210432334e-02
-3.345059652676148076e-02
-3.527905153759080398e-02
-4.222363857576356266e-02
-5.376025790156827022e-02
-6.754299805166721904e-02
-7.996251232858186953e-02
-8.759546131200418584e-02
-8.873217879353834103e-02
-8.320754696489089663e-02
-7.062164753644775694e-02
-4.949840570353014613e-02
-1.952284195185231830e-02
1.494010421460907276e-02
4.513354475110432223e-02
6.367132667459554640e-02
6.995518097542503810e-02
6.918967488586748316e-02
6.709115604731226423e-02
6.632255893143271241e-02
6.618299170541439014e-02
6.371694534361639628e-02
5.598169494899990495e-02
4.327616040500296968e-02
3.025875788453850912e-02
2.250990785877311079e-02
2.155543868617388475e-02
2.399761212812922748e-02
2.560257849538514346e-02
2.525202608214783401e-02
2.445608897313592683e-02
2.394677673962160303e-02
2.210899108415678715e-02
1.730255458675427488e-02
1.109604482920023213e-02
8.052607263074277461e-03
1.173123161759745577e-02
2.106872264117084365e-02
3.090212881353031349e-02
3.605123659370326056e-02
3.505545016562948424e-02
3.035888002098676569e-02
2.551516437212439023e-02
2.264211390471521784e-02
2.193247084157568666e-02
2.239298628403524338e-02
2.285055806888954683e-02
2.290883472709807217e-02
2.294124107584975814e-02
2.268981061484994996e-02
2.034388975628584686e-02
1.412085916313640492e-02
4.806891620338661283e-03
-4.380078865558436479e-03
-1.075601347552212692e-02
-1.384561783021571665e-02
-1.363620079284512572e-02
-8.925519156654565869e-03
7.523441885095242393e-04
1.266459865596310935e-02
2.297273001677285417e-02
3.108462724349471407e-02
3.913486062298904278e-02
4.681780528390173252e-02
4.984488506194147128e-02
4.498244214836315258e-02
3.433671890292337714e-02
2.283055151080410142e-02
1.286989810771043026e-02
3.435500420466822136e-03
-6.246391610975730521e-03
-1.456171819028567564e-02
-2.010123557156218849e-02
-2.481661988596316204e-02
-3.233847701300480992e-02
-4.298959121529619121e-02
-5.212350594405606302e-02
-5.417814970591161572e-02
-4.758332858793330039e-02
-3.537998789555114876e-02
-2.229325000518041222e-02
-1.246337823290436485e-02
-9.152800402814603720e-03
-1.365549170224666410e-02
-2.208481679694572139e-02
-2.409119737027199878e-02
-8.398163348951635104e-03
2.695773067414503066e-02
6.928947695430669185e-02
9.838534832254745843e-02
1.016255193845748278e-01
8.297847188652314465e-02
5.689618603386375345e-02
3.396470281157370347e-02
1.371624200384357825e-02
-9.138479587713063679e-03
-3.443793305563805363e-02
-5.456976978146870633e-02
-6.134822097771303745e-02
-5.265861552466580969e-02
-3.275293827041882155e-02
-8.132853398778474435e-03
1.626590349245991829e-02
3.766273177987985998e-02
5.275231198905712404e-02
5.592529993078948491e-02
4.356800292999830210e-02
2.150381537240112981e-02
4.432727592123356444e-03
3.422953234107810674e-03
1.440972343557751778e-02
2.298087215157916183e-02
2.121803107851509204e-02
1.584038226753981676e-02
1.752551192644804384e-02
2.601983800749293682e-02
3.055121589560756690e-02
2.395562346658210509e-02
1.148588711388699724e-02
3.883445459419067151e-03
5.056688188583847478e-03
9.832425117937051290e-03
1.254512838006322482e-02
1.409708589276842221e-02
1.941466648926300914e-02
3.035678800782128442e-02
4.330131173753594409e-02
5.278759799314496071e-02
5.551336208875112810e-02
5.116962121388109186e-02
4.163860612517582965e-02
3.009160143449112618e-02
1.942989937232758937e-02
1.059360397663725202e-02
2.852348355919748744e-03
-4.098978272956785296e-03
-9.356032833569203483e-03
-1.245831386448788269e-02
-1.443307967149578055e-02
-1.605831952619085970e-02
-1.604962582631719661e-02
-1.264124263004578509e-02
-7.090190856685897255e-03
-4.326109395318335216e-03
-8.959485318748921026e-03
-2.033344640767967282e-02
-3.199138183795348367e-02
-3.669554840002398066e-02
-3.208396402798302516e-02
-2.137092119078679020e-02
-9.412927145075668245e-03
6.695503594624585900e-04
7.267855332340707186e-03
8.785084868713235323e-03
4.393270142983501242e-03
-3.639381871367389828e-03
-1.018920431236582276e-02
-1.139874548859244260e-02
-8.337724678828210140e-03
-5.633815539008231628e-03
-6.458655289006687283e-03
-9.374876509558656423e-03
-1.000754327566972905e-02
-5.436189266825965094e-03
2.813634936992010643e-03
9.800607853248412271e-03
1.181774253413237982e-02
1.086127429017089661e-02
1.391027805011548803e-02
2.647999490042087303e-02
4.679380812570544529e-02
6.687360685712259722e-02
7.888613779280542748e-02
7.995233652034833272e-02
7.215457017755769198e-02
5.978159616224227452e-02
4.657268746639958712e-02
3.428769729664633142e-02
2.325078449291606911e-02
1.411442270111427921e-02
8.403018063605004889e-03
6.931157748416495734e-03
8.675791385080951906e-03
1.220795768623439762e-02
1.745528939497433679e-02
2.462071435353650056e-02
3.166925195915850505e-02
3.468836857781992106e-02
3.163332203234485440e-02
2.491272277904954535e-02
1.931785757597786687e-02
1.733898355154241122e-02
1.688494692582491116e-02
1.404583330463504004e-02
8.331238198512698825e-03
4.316888223470941900e-03
6.711431635034962456e-03
1.429205975913224423e-02
2.088396341276208337e-02
2.243193776365074235e-02
2.059050858105981527e-02
1.871197656920221483e-02
1.727506350343018318e-02
1.523565770049800649e-02
1.349668099954276675e-02
1.383931270171145228e-02
1.500850851526472352e-02
1.290116520247742288e-02
5.678787132825590181e-03
-3.069958977584089869e-03
-7.681242110846857318e-03
-6.150771020130842495e-03
-1.375261034235926612e-03
2.630331860401303665e-03
4.014531965005924130e-03
2.384331783616854515e-03
-3.220563158277546523e-03
-1.364842941308344257e-02
-2.698608731211647044e-02
-3.831951636934007727e-02
-4.340086850860257195e-02
-4.209699487639268628e-02
-3.707761299229574148e-02
-2.931697373526297168e-02
-1.687062221139137147e-02
4.134974321240566728e-04
1.643239608942720364e-02
2.213301311998595172e-02
1.395121609335612731e-02
-3.036746393111917040e-03
-2.078593713179166524e-02
-3.472652364026736216e-02
-4.376071611763508035e-02
-4.687964226922135269e-02
-4.288089408140809827e-02
-3.310708728572946125e-02
-2.227230202624659594e-02
-1.550232444384954875e-02
-1.483391560930995973e-02
-1.885045243704754070e-02
-2.511573094538303852e-02
-3.197761267303510235e-02
-3.802916597570445145e-02
-4.092511133807681667e-02
-3.703357859929088530e-02
-2.168706208818802286e-02
8.631730004369298978e-03
5.047645553191236478e-02
8.903798661944734016e-02
1.047399468367864184e-01
8.971571729202143519e-02
5.717029170807119698e-02
3.031868063539103209e-02
2.120031668788648072e-02
2.278965792861881168e-02
2.174902579359166629e-02
1.472465394419866271e-02
9.558357802910439488e-03
1.342054742447543365e-02
2.426783189946191480e-02
3.430384771976777158e-02
3.830292844930804907e-02
3.635365968132930892e-02
3.045912571274040498e-02
2.170827092863881341e-02
1.100540484457734371e-02
1.708288964575406174e-04
-9.033479473141585447e-03
-1.614331434939946658e-02
-2.128710065108476573e-02
-2.344168220568667443e-02
-2.016595010264399246e-02
-9.598459075372645782e-03
7.051495305440537084e-03
2.489094816344411543e-02
3.760952515155441961e-02
4.159821701988759834e-02
3.886799449825776437e-02
3.536411674432007185e-02
3.510858331333428090e-02
3.602928502571065006e-02
3.256521985655450036e-02
2.225031306877061493e-02
8.829160289100933257e-03
-5.892754165061821897e-04
-3.424458795050917262e-04
1.017070461699862496e-02
2.405816257864871327e-02
2.822771051553431276e-02
1.246551548698553169e-02
-1.915762980888951333e-02
-4.894103064461984010e-02
-6.171266697824191044e-02
-5.930623461611342351e-02
-5.608620922254212854e-02
-6.148106609519028709e-02
-7.091344285160849914e-02
-7.443568538946554458e-02
-7.059313078360808513e-02
-6.906702464238081984e-02
-8.060875663157196502e-02
-1.058900722003667805e-01
-1.337069264762351106e-01
-1.493529034439661507e-01
-1.453722486924697299e-01
-1.246816461526962100e-01
-9.402805663566153604e-02
-5.795669585457795259e-02
-2.208197607247595895e-02
