1.455150216875537817e-03
6.749411464056627175e-01
5.491836619202847825e-01
1.710792616249577902e-01
8.669590502348098471e-02
1.774845390886189977e-01
1.865090016129016537e-01
1.566264832435722565e-01
8.165180809074631951e-02
2.592769597427523331e-01
2.112423749135881532e-02
9.291551740066662790e-02
7.214780707651639868e-02
4.198293886189521235e-02
1.035753907660669493e-01
8.276336682074363071e-02
1.020599254155314106e-01
4.380225231402685299e-02
9.866071734562831264e-02
1.146475191748872260e-02
5.745004808839604404e-02
5.883700407674334609e-02
4.026425951987135099e-02
2.306552813972715527e-02
2.013728807860499029e-02
4.666696754208668474e-02
3.875583934000575298e-02
6.559654200168360538e-02
1.027437086755297047e-01
3.328581910343575857e-03
6.020853691707226535e-02
3.354104282172538226e-02
2.787145359402554146e-02
7.468811355205298708e-02
1.100122851868429452e-01
1.461319326355939585e-01
1.521992163298639400e-01
1.672517382818554388e-01
1.643848438246728050e-01
1.845974201723564190e-01
8.884888410358740551e-02
1.209500144408920397e-01
1.174647978682737542e-01
9.223019726138487195e-02
1.467058988667929720e-01
1.026025353256636297e-01
1.322018540837412715e-01
1.931840491635692658e-01
3.161731925292866063e-01
1.314615923810741882e-01
4.557966523927200336e-02
8.533039368777685374e-02
2.204386286933511241e-01
2.053306417586416022e-01
2.251007970711825235e-01
1.815295153745025147e-01
1.699545527050481397e-01
1.473309480940376004e-01
3.352635452568463736e-01
2.274478831988052951e-01
1.790788432321297474e-01
3.102453311504926869e-01
4.044906368500696958e-01
1.373752679145834321e-01
2.224172054883110095e-01
2.412836730244859729e-01
3.260638045356454295e-01
2.604456406407233415e-01
2.890730494558106933e-01
3.118098232018235993e-01
4.096766510132466288e-01
4.041683332615669255e-01
7.921854693994769825e-01
5.679196314084439257e-01
1.748487038690101358e-01
6.406583700895743805e-01
1.671716020777894440e-01
2.595261170153351782e-01
3.101818276649798145e-01
1.330344330252626051e-01
1.824564099944997742e-01
3.977144093136754099e-01
1.554381967192458858e-01
2.360561977860961558e-01
2.320690671650509351e-01
2.059614468668757858e-01
5.429547360359967545e-01
1.101780199178337138e-01
4.315571789347044662e-01
5.793224427895466988e-01
1.247372849676932766e-01
2.071781782991092835e-01
2.600185580795524865e-01
7.208220753518745916e-01
3.173115908215530245e-01
4.115783981657742396e-01
2.082658027379515608e-01
2.962340255598592265e-01
5.674355554282614067e-01
1.439467706185017792e-01
5.762672860670809971e-01
3.787785111123649906e-01
8.808944398994669189e-01
1.294325582307382372e-01
1.897342366197878327e-01
2.724340576050215401e-01
2.908172897172845994e-01
6.743824187985260066e-01
1.512038418678035012e-01
1.855447762873836670e-01
5.643025755596946524e-01
3.276291717005698767e-01
3.607587672110129096e-01
2.251903911023707683e-01
3.780519627500106283e-01
4.806923777837172063e-01
5.790673928430195572e-01
8.002632820709221217e-01
5.834032301518197183e-01
1.578232622947474406e-01
2.049385645715761928e-01
2.749698847605793195e-01
3.125700845871768885e-01
1.422997437366944617e-01
5.852757815817344333e-01
8.393955341291475802e-01
5.243955060728774376e-01
5.407798266627049655e-01
2.509254295603499663e-01
4.288862279973302827e-01
4.696725830280703007e-01
3.083947644375110708e-01
3.136534917905476894e-01
4.149136966698243056e-01
5.619943746741612456e-01
1.598319054160484975e-01
3.729285602940223265e-01
2.572419247620020277e-01
4.629043802742526803e-01
1.000000000000000000e+00
5.269252254458477447e-01
4.442352318067039896e-01
1.290041894667703359e-01
1.830028547343267586e-01
3.109322955308878589e-01
4.986300646637466527e-01
5.320821370251987981e-01
3.823076513670341514e-01
4.231025871808038463e-01
2.564674801672749416e-01
3.975683484360907904e-01
2.598346525274305430e-01
1.772984797028368253e-01
3.369973150317333022e-01
4.785182859163507052e-01
3.176055595699890377e-01
1.763517863007646735e-01
6.881019010770400568e-02
1.718644402420509143e-01
4.296832207481598442e-01
2.922121556607373827e-01
3.933770114004551677e-01
9.067103096458686839e-02
2.344426139944955356e-01
6.655186537793663648e-01
3.447103738040381837e-01
9.485836335325891211e-01
3.996766082701999068e-01
6.733719967369644621e-01
5.569073108709525766e-01
6.689303819002341556e-02
6.982721852996879308e-01
4.357421818338926278e-01
4.284925416258285602e-01
1.294223736232911481e-01
2.881489712877223774e-01
3.455876944252657679e-01
4.777308168524488363e-01
5.525413169169812733e-01
7.750379940446282534e-01
1.242736443679433034e-01
3.357243550203594662e-01
1.799104973029705401e-01
7.706929890127106608e-01
4.321395294429698497e-01
6.093672993425122142e-01
5.324823624725235627e-01
6.768187033984865986e-01
5.392080524261527036e-02
5.392803305319583407e-01
8.143801792099637504e-01
2.396575830047483202e-01
2.727236109438219147e-01
4.688847329127247554e-01
7.914896483974860342e-01
5.477536982195589932e-01
6.373096895266859852e-01
1.494293208974611376e-01
5.668616655952914973e-01
5.572292990264019474e-01
5.877716852893699606e-01
1.827222334271962623e-01
3.680704000603449710e-01
7.745662513927706883e-01
5.302090509307829658e-01
5.285267880900197390e-01
2.604817643014911144e-01
3.389141039111602249e-01
4.588504986277779918e-01
5.941545441469904265e-01
9.904676658895554542e-02
3.741709697718007543e-01
6.514464423185809538e-01
9.952818038457297845e-02
8.340060081574826034e-01
2.906447365044133035e-01
4.142161031156821882e-01
6.999419568984693862e-02
3.279618832646325477e-01
9.474463760381514332e-02
1.522745174270054846e-01
6.115396180966949785e-02
4.541689386964300468e-01
2.325741578289929612e-01
7.217476803912222794e-01
3.231497852842289409e-01
2.448940079079355847e-01
3.628252051748891982e-01
5.711120179040163336e-01
4.319065644066377163e-01
4.068472878129111847e-01
5.458533879777499598e-01
3.008608005901591831e-01
4.213291592844080058e-01
1.491817730864524183e-01
3.675029091665116265e-01
7.925762730471426210e-01
4.544415725661781758e-01
1.770838458672968074e-01
5.444640585176879766e-01
2.071595780701283585e-01
5.948107533776141320e-01
1.281600969171071969e-01
4.146913074527330267e-01
3.346759753660322745e-01
1.753301116329874787e-01
3.687491142998032823e-01
1.785627348652020774e-01
2.554609952303347753e-01
1.187074029483371346e-01
1.237875002986637760e-02
4.153149617171671831e-02
1.980713181375658161e-01
3.979870703026228140e-02
4.514891117881771054e-02
3.048830177611624448e-01
1.204813177901558757e-01
3.930702785183379788e-01
3.315234161784408329e-01
4.844978953846544312e-01
1.261483180412747152e-01
7.309257175565435360e-02
8.403070969372754551e-01
5.670087909017915706e-01
3.960678467653909185e-01
1.418280044226740422e-01
7.397096377245482302e-01
6.238989349913452997e-01
6.753473339469104886e-01
3.515274202254820568e-01
6.254460910034638221e-01
2.713237092827504027e-01
2.325741705078222532e-01
1.711450582354619998e-01
7.193449978774353604e-02
3.911626494830035550e-01
2.929751738896451130e-01
1.775610407347992525e-01
6.058667895070118936e-01
5.988766887149666873e-01
5.069742056054270529e-01
3.323497700724745707e-01
2.811241526864300400e-01
8.926823415469968825e-01
1.978661032579493440e-01
7.067737198665547949e-01
4.362303595382030497e-01
2.735941834571971598e-01
2.851631445047351221e-01
4.700697640925038945e-01
5.655085836018133305e-01
4.412003296502295391e-01
7.154069177185243822e-01
9.322541948444250381e-02
3.632730684171923130e-01
4.652660147409407032e-01
1.099671539971927431e-01
2.554662423084009815e-01
8.853579368678075878e-02
2.003043273029149196e-01
2.186417659507999267e-01
7.123892086952025027e-01
5.566597267341948374e-01
3.124851121158798706e-01
9.779413398858159689e-02
2.923550582882555315e-01
2.560271306847761719e-01
7.043726317794978264e-01
3.611853986700769292e-01
7.519193358065240362e-01
4.898411075913249313e-01
2.265889952987202305e-01
1.778201418247701560e-01
7.081666255478431538e-01
5.471382588667893510e-01
4.877347246538054071e-01
5.168538024979522083e-01
2.965335042360922047e-01
3.572809541670213251e-01
6.759976992844790589e-02
5.951598798322257355e-01
2.789900998494318496e-01
1.659045445504316318e-01
5.203185094038067504e-01
6.658156896431653982e-01
8.259687598232659522e-02
3.054251557047322763e-01
4.569147427127194239e-01
1.725939933417016958e-01
4.779019142950161059e-01
3.617362406048717505e-01
3.269080096790916157e-01
2.887469363636493980e-01
5.723218598705644977e-01
3.614984318742894831e-01
5.316047038100966127e-01
4.956774513790510595e-01
4.780327731729375196e-01
6.495982166043802186e-01
2.521912409483205719e-01
3.164815091453672125e-01
7.852844419946762855e-01
1.788292863756469064e-01
3.351587911274745424e-01
2.062086319018209823e-01
7.639518466598765878e-02
3.702983013648264432e-01
3.126796223519303641e-01
1.575947708215152121e-01
6.644113614880230445e-01
2.897851179170718994e-01
2.398018822808936079e-01
3.256309404859176748e-01
2.348902263762918108e-01
2.188687190446434172e-01
3.396360046525909171e-01
3.249223316229883363e-01
3.998103004801873972e-01
4.393658399863146768e-01
1.408107705662512699e-01
7.283346959372886120e-01
5.770154844248069903e-01
2.605532039182151260e-01
2.368764191788684526e-01
1.270600066560295949e-01
1.812709539839118533e-01
4.173005372533513668e-01
4.761026641364918821e-01
3.671629568509283681e-01
5.490717360201223807e-01
4.325888973829047357e-01
3.490915331064848304e-01
1.441936065409252232e-01
1.940045159624781967e-01
2.964923052265778791e-01
2.298587680776260356e-01
3.254441205042024055e-01
4.179421825619756281e-01
4.069994694926695744e-01
2.713836384642018817e-01
9.776446155372810198e-02
5.099941224505921689e-01
1.125154441079851270e-01
3.823507580306964027e-01
2.517956407767319438e-01
2.417738709719709778e-01
3.627760586973088341e-01
4.554071973459107303e-01
2.617298842854077212e-01
1.662519242264097752e-01
3.481183270343878311e-01
6.326596136344764254e-01
4.734433445509944050e-01
4.419253229718997922e-01
3.506818929121470751e-01
3.426308583683970732e-01
2.334032397351498422e-01
3.247842759554164793e-01
4.477448482934288099e-01
6.063339911262474180e-01
2.823273251578039544e-01
2.066932132205970274e-01
5.195766210394577866e-01
2.783666282452332275e-01
5.372121956438093981e-01
3.782439231010807368e-01
3.992513971673883888e-01
2.832652700029788528e-01
4.486253708157333930e-01
3.879452854992014865e-01
1.021505962917833715e-01
3.113723695903922728e-01
3.952765622050245509e-01
4.822469125754770825e-01
3.945050644114871385e-01
1.523385929359704627e-01
1.773192577023531835e-01
5.828804421993608598e-01
2.840727157560868910e-01
2.104778818927511772e-02
5.529710840418162743e-01
3.736694138009831190e-01
1.724224479261148024e-01
3.332405128879090128e-01
5.615093524728252961e-01
2.902478269517261844e-01
3.016488089832504715e-01
8.517350505380445747e-02
1.560515432809048697e-01
1.798733843532953902e-01
7.667119402920329063e-02
1.047291670229670013e-01
5.797775563070724919e-02
1.173938899473717518e-01
2.684385609325594668e-01
3.024957010220742371e-01
1.899655941603265452e-01
1.231360201437633611e-01
1.471448076271628103e-01
4.001414222219518146e-01
3.184363954599050972e-01
2.488164060090501395e-01
2.513938992670466388e-01
2.080444823728163084e-01
3.496002812159385575e-01
3.974504108762915711e-01
2.208413240879135986e-01
2.226061934121398023e-01
6.706804082522663246e-02
2.932178611071402652e-01
2.851790517574923078e-01
3.210668071091069553e-01
3.202502824247243640e-01
1.802836949779728914e-01
7.888804569532663347e-02
2.843430538495371751e-01
2.189295061740151593e-01
1.809427122525468223e-01
3.682432713610676173e-02
2.360408674368246473e-01
3.060935042996702493e-01
2.485895927808942085e-01
1.303167072863313514e-01
2.901270214331582720e-01
4.228750044677747622e-01
2.544093358047739284e-01
2.410610257405230439e-01
4.187902795465431871e-01
2.963152713751670553e-01
5.683876101509702933e-02
1.891420298081942508e-01
1.001824122294030089e-01
7.416727409684932548e-02
3.534681757706424343e-01
3.559067715001863058e-02
4.952134173680166618e-01
1.459013240267741651e-01
1.198504720433173909e-01
3.252870373926149972e-01
4.998283405303515781e-01
4.844332959261590799e-01
7.118360726396275040e-02
4.600873722632629614e-01
3.541723400281583389e-01
3.159783182777994304e-01
2.167364407743480881e-01
6.889723033246908379e-02
2.017109923791181314e-01
9.437246039337028602e-02
4.238342879503784189e-02
1.114658860319233946e-01
6.369342757799817401e-02
1.207262173943246253e-01
9.222176076319939242e-02
7.951590203556660463e-02
8.809097040364838316e-02
1.246709760374425657e-01
2.780385244800842592e-02
3.858705210405823788e-02
1.716992327834511445e-02
3.370176436664884534e-02
2.194313569814231035e-02
2.056596468450938922e-02
2.043444368402274475e-02
4.842636377112934098e-02
6.123620567213991506e-02
4.675005803716433123e-02
1.939374362707489974e-01
1.861207521690874389e-01
4.137670062489378492e-02
6.239776747749788827e-02
1.070587287345688143e-01
1.449017273616370616e-01
1.987622867110405422e-01
1.041900101916187621e-01
2.035141874945483875e-01
3.534909723395323611e-01
1.376987984712060298e-01
1.445205737368910615e-01
3.562316633566957602e-01
1.857433373871921478e-01
1.074119997168879459e-01
2.680381719213802416e-01
3.637307275315104782e-01
5.288384566333152043e-02
1.098768413109086350e-01
1.415022059906466678e-01
9.182180902677379575e-02
1.852215891518226021e-01
1.265633024250380767e-01
4.937576285293458767e-02
1.979192826804139771e-01
3.685582494941999632e-01
3.010644301941379219e-01
7.340967070292168939e-02
2.881326150702714362e-01
5.018918220449022916e-02
6.498144333455418975e-02
2.075867885527384882e-01
1.397356810883662870e-01
7.961414545898638784e-02
1.042130994383933112e-01
2.083478273849285745e-01
2.006342892362133479e-01
1.017122276853897611e-01
8.759063704216053792e-02
1.292240221757040564e-01
1.194165255035314899e-01
1.184784924652853566e-01
1.252981765780282197e-01
1.088876760449103004e-01
2.323671800118417563e-01
3.662818575629728790e-01
8.940029184875673829e-02
2.013304645920040437e-01
2.425969529561269045e-01
1.814325828891354409e-01
2.784984826416375681e-01
2.228343291301243534e-02
1.907488452582606631e-01
2.802457169221906352e-01
1.213698570535782367e-01
9.234180663732975691e-02
8.218952898730960688e-02
1.785484090143002189e-01
5.745041748754150385e-02
2.460479528719638209e-01
1.994125867732216839e-01
3.596987319712077746e-01
1.238674697153960419e-01
1.301548960021917389e-01
7.712951069758834655e-02
1.584001148872751785e-01
1.923596124949088215e-01
1.034733946906025853e-01
2.589304334283137332e-01
2.000302940991378065e-01
1.117991470337036941e-01
2.414428956302175355e-01
2.560443128749400055e-01
1.208799992616655522e-01
5.689384779976177503e-02
1.128664499988877717e-01
1.187421209921254023e-01
1.554462631378215609e-01
2.288734692775287460e-01
8.504487749491622395e-02
9.099462478564701584e-02
8.481850614662672649e-02
1.149230797608133542e-01
1.153640572624425598e-01
9.452264723552589176e-02
8.814177701966796619e-02
2.235317468591707102e-01
7.785985918162986741e-02
1.249945860249064844e-01
5.416731168215735415e-02
3.124432777665346953e-03
7.434622234531813867e-02
3.278597605532531517e-02
1.051980917879039856e-01
1.099123442287404939e-01
3.690669773206665255e-02
1.215226966188136110e-01
1.897219591953843432e-01
1.308758220168091402e-01
8.714379169526481617e-02
5.472401325587070847e-02
1.668485849978115776e-01
1.548281190778449390e-01
1.855073336132406769e-01
1.070375181176028423e-01
1.582186403219945359e-01
1.542252972042389703e-01
1.090213591431297008e-01
1.498635044440785880e-01
1.689777727548451292e-01
5.698526310209667961e-02
1.070087961984244052e-01
1.421736727783729781e-01
6.399697298155050673e-02
9.654388660683630927e-03
1.300667718022603114e-01
1.424549957610860007e-01
9.173759813592040346e-02
1.556401204207936151e-01
1.524931070967800069e-02
1.171558588438187665e-01
1.216622506604233267e-01
6.987987285533556192e-02
9.381678399519800815e-02
1.781240833272191085e-02
5.224943851750270263e-02
1.232383251411609155e-02
8.158814738799162469e-02
1.497980940217071288e-01
1.556395903131075342e-01
1.940718481085404457e-01
1.119846162609845763e-01
1.327373198015010802e-01
5.997851858989818735e-02
1.735387740966597842e-02
1.168415868954088416e-01
2.236987386099221764e-01
8.154842737167411482e-02
6.045952300669957258e-02
5.720348081578075644e-02
5.662594333211282138e-02
9.580477526017576462e-02
2.003793935308005869e-01
1.786879000816871677e-01
8.488894166866975399e-02
8.291557768154531050e-02
8.080036200505663624e-02
4.771429660444503895e-02
7.783653823005472205e-02
1.360641263352700137e-01
1.044337001197176255e-02
1.427867600379928159e-01
2.884054127792679695e-02
4.295952160237342249e-02
7.924841172906148257e-02
1.303648778887980808e-01
1.231762706327914625e-01
1.099024725614618087e-01
4.293371792620329780e-02
1.030387457048339561e-01
1.012586508612227376e-01
4.675834744229105666e-02
1.140712557757264482e-02
9.968433654355936258e-02
2.627990753049961881e-01
1.553779243618017003e-01
2.099825135457707714e-01
4.795763258134288359e-02
7.090427976933974530e-02
1.337415501011747221e-01
9.947128259993613664e-02
1.599185359906838966e-01
9.962041362076412554e-02
7.630146877032242814e-02
6.218650454480813272e-02
1.552536816101842965e-01
5.192506727476147582e-02
6.543957126044140649e-02
2.286172266469336245e-01
1.580336740295493203e-01
5.327006499401258643e-02
1.398100942008200509e-01
2.292365065977267358e-01
8.575806129703687775e-02
4.931691082544944343e-02
1.049552495103809185e-01
8.825260953872320069e-02
7.190244329059299055e-02
2.509884021844817001e-02
8.554119680367594514e-02
3.063947015256016787e-02
3.670162695266778602e-02
1.605132574350672803e-01
1.638085663208392329e-01
9.283997447140188153e-02
6.969721007398207990e-02
9.216849568433367612e-02
1.753791312826754323e-01
1.279192278712377451e-01
9.577638554680288629e-02
8.136794634297672690e-02
8.605102898222009855e-02
6.578967603911239914e-02
8.012397575769336644e-02
5.934572180531380581e-02
9.175464492842039244e-02
9.393125676189605089e-02
1.176160827899884465e-01
1.965180538832609070e-01
3.956156892743699360e-02
1.137211048414222964e-01
3.682284075842619242e-02
8.508322351444844167e-02
1.376624356433483187e-01
1.436044711916099614e-01
1.332717058234379193e-01
1.557548114573609026e-02
5.961383759980811575e-02
6.422233950449469930e-02
1.311322871293880699e-01
2.316434835229040645e-02
8.364314221246454961e-02
7.706033184823843363e-02
4.929965590579385437e-02
7.425976671896278303e-02
8.089704628140244325e-02
1.203681434642645681e-02
1.087109542211942004e-01
5.959909950883278407e-02
1.290618138357996492e-01
1.401491823069051235e-01
8.464821111158313260e-02
6.511797368635462158e-02
1.692861599821018082e-01
2.132441757582131114e-01
1.523517418918560185e-01
3.300155701874932235e-02
6.563300627556564737e-02
3.190326617587959518e-02
1.093290804302854413e-01
3.393780715685629223e-02
9.034015597920654062e-02
5.094380373743649659e-02
9.961935139546963802e-02
1.636629510928808706e-01
1.075226903337182238e-01
7.244401830210996096e-02
8.443649706241564135e-02
1.132931538142346872e-01
1.428345436525487455e-01
2.002155076370137204e-02
3.922726668902540986e-02
1.578755025559778480e-01
1.184325258649451540e-01
6.493026500179370497e-02
8.764494506850563360e-02
1.871808368770667974e-02
9.220842420775265946e-02
1.817266438830948128e-01
5.426261633739075385e-02
6.498266275336596343e-02
8.791792820872480763e-02
1.517924850081527333e-01
7.739221532040158058e-02
9.952787079552896654e-02
5.490782653083044890e-02
9.599155029129501082e-02
1.904485437141679172e-01
2.062007498701765307e-01
1.332601254144269165e-01
5.178280478686756588e-02
1.017479651170295346e-01
1.588110167887896440e-01
7.073676617100242703e-02
1.096482264745218677e-01
1.561345866698573281e-01
9.886168931645497593e-02
7.638164124649500508e-02
9.166547397800536845e-02
6.203109692940806524e-02
2.495023612545817920e-02
2.341017534423553426e-02
1.546652773175825613e-01
4.712327278239753642e-02
4.677277153393239600e-02
9.636908241627828442e-02
5.503881247716807534e-02
8.290273941894017729e-02
9.843686551010577546e-02
7.401509241105207193e-02
8.852864731056139802e-02
1.081714809362350899e-01
2.442547376366900613e-02
2.190066727224415644e-01
1.275691004965377184e-01
8.162994597854374146e-02
5.827659767985469280e-02
8.605864042777650741e-03
8.146467476753306569e-02
3.499784966600520686e-02
1.236199668167421162e-01
1.589936382179690244e-01
5.043510929742749810e-02
2.141496182276832472e-01
1.689392165780239374e-01
1.654422132150140112e-01
5.218881117188542418e-02
1.525535572065477019e-01
4.086577316066480198e-02
1.128728828014739088e-01
1.097411399080990974e-01
1.656479331833169144e-01
1.234292454945909168e-01
9.727846296298552076e-02
1.992708229321553115e-01
2.106780720900971460e-01
3.966512090160871640e-02
1.584298718271369699e-01
1.984245519682943659e-01
1.632830998286683988e-01
1.885356397247743843e-01
4.900129581692036496e-02
2.913225507670203981e-02
1.028344910603870704e-01
6.565937158920334693e-02
1.112669884866139686e-01
8.283950405238875436e-02
7.903067251698903117e-02
8.687154343251059230e-02
7.700664727835887513e-02
1.056193189276843497e-01
9.632034004043392439e-02
1.181977843176591630e-01
7.327040353627337077e-02
1.464817269270803635e-01
7.746249688658901622e-02
6.013147622986478313e-02
9.250855168501195824e-02
4.265660843625394827e-02
4.104615951523209877e-02
9.204765078722826344e-02
3.467214642564959981e-02
6.465970080819172239e-02
1.543407101335056153e-01
4.983579191970369249e-02
4.439683963721000048e-02
6.274552920238860021e-02
5.901920735849374572e-02
4.994759257638051175e-02
1.662404229937018696e-01
7.792653185154274631e-02
5.414407064667522973e-02
1.201777124802551194e-01
4.136423996231572420e-02
6.256519353046038900e-02
7.195429805898700959e-02
1.589340089580204562e-01
7.915381596152078203e-02
7.147840542156530530e-02
1.292805053041281294e-01
1.004348038341396215e-01
2.374873358217698474e-02
8.185062430425850410e-02
1.809579372900633476e-01
7.580334228440366307e-02
7.154751760932166749e-02
8.578230008660862882e-02
1.499749792398875903e-01
1.014124591239221329e-01
4.808093940491508372e-02
1.025236560765144245e-01
7.440729489790441631e-02
4.035624674292320052e-02
6.853996550560899348e-02
8.338272487973051594e-02
1.546381202757222129e-01
1.117503199916186907e-01
4.756685077639841164e-02
1.565752140800273640e-01
1.006755665157138269e-01
1.003319418714064132e-01
5.827585199696851126e-02
9.060578929511767243e-02
2.072028706130367437e-01
1.543542919597395702e-01
1.244253139315855544e-01
8.061427702379371507e-02
1.184898092956471333e-01
1.459757497934686399e-01
9.806974626612867396e-02
2.680126019684094321e-02
9.659467927405569754e-02
1.019763990368221518e-01
6.448421128426921889e-02
8.805716011054155745e-02
1.812279339099721609e-01
2.341443221649435261e-02
1.233700777979306745e-02
9.715569397528310558e-02
1.092924049325156299e-01
6.138750751215456269e-03
7.339720668843571771e-02
1.029157679438166689e-01
5.710373926279962292e-02
2.272820706691704162e-02
1.336621210628234913e-01
1.042867930623129352e-01
3.063144617200709574e-02
1.237472831000944878e-01
1.994965975309662409e-01
1.295635994469663266e-01
7.528460898051918260e-02
5.013948487760306466e-02
1.964970534619694398e-01
2.061151136666463934e-01
1.528507769889266565e-01
1.533065772568451279e-01
2.609929020959842610e-02
1.461085931538421423e-01
3.005386466912308707e-01
1.457694988249723100e-01
5.713291929541727127e-02
6.326568025376114179e-02
7.810430631898748755e-02
1.566236961333252187e-01
6.502979775483512526e-02
3.717541221198834150e-02
3.978664855135669032e-02
1.087463368704848499e-01
1.278026035650079717e-01
1.232435894866808074e-01
1.254402851532037677e-01
8.639975173985273149e-02
4.563900659614198579e-02
6.860770298594501271e-02
7.057620237832645804e-02
1.106405697248127318e-01
1.019823870747624400e-01
8.443399103855668553e-02
7.321958952767972095e-02
1.433033245735017835e-01
8.695236748431192653e-02
1.031890497119565368e-02
2.315678896502830764e-01
1.639223434629509257e-01
1.501541962991866375e-01
4.880444755291107189e-02
5.708168861833106539e-02
8.305451332849520668e-03
1.242354953415242130e-01
4.057169937548771310e-02
8.523179967763948317e-02
9.932876729270055660e-02
2.077434439512952646e-01
1.797040761587246627e-01
3.933344887423419201e-02
1.043349908612900556e-01
1.344437254183097619e-01
8.277572137902620975e-02
1.686797681671872995e-01
7.494236471981285952e-02
1.674720399162480944e-01
1.278918773104055218e-01
8.333630479767195620e-02
4.018166827065432906e-02
6.467202525655940670e-02
7.065796813139782473e-02
4.869712180067083812e-02
2.137235785443797331e-02
4.879602312383150842e-02
5.119327545500881177e-02
1.390868209653512572e-02
6.622312000334026894e-02
5.845238569579167681e-02
1.102761595395426453e-01
1.030512358480069196e-01
1.005450835658043135e-01
9.535461866459001012e-02
1.210210015896824448e-01
1.363646871202759681e-01
3.998073256169752676e-02
7.159665263766822052e-02
3.580980982768231652e-02
8.130168666910364550e-02
3.004215869436477337e-02
8.424610302008819773e-02
7.553003088916851460e-02
2.928054303850457715e-02
6.886644079356978032e-02
8.677123526308082313e-02
1.137473991677332708e-01
1.476653167470109475e-02
4.568715594126637053e-02
1.806362785177264008e-01
1.089321338124553118e-01
1.089344692984745566e-01
4.318187210076557953e-02
1.079081358098788260e-02
1.418379465565395570e-01
1.844710282131817036e-01
7.159231856497601243e-02
3.801556848475742822e-02
1.545553448088126391e-01
7.006765431681441503e-02
1.996313059825399402e-02
7.850472493525359474e-02
1.225148352156485293e-01
1.967858472444293239e-01
1.171722942738085832e-01
9.258756900936408740e-03
5.327997219470627377e-02
8.292370619501955586e-02
1.637769762482458868e-01
1.275971894807953998e-02
7.796180464728053039e-02
1.377214630496951531e-01
5.248479031193821476e-02
1.020096231253450059e-01
1.195323456238181065e-01
1.285698587763115242e-01
1.105243245909151573e-01
4.532293642887463142e-02
1.624663282000610165e-02
4.555741967937904785e-02
1.506585581329832058e-01
1.731208425631241554e-01
5.229955907170726753e-02
2.697965450946737676e-02
8.559327631880575549e-02
1.324317397461408363e-01
5.985602450826936483e-02
3.812220265152915094e-02
9.832000527475051599e-02
1.028401551873997649e-01
1.071247864427881252e-01
8.926579506624739146e-02
8.346467153584487264e-02
1.778224316101171820e-01
9.592546798630686988e-02
9.372087881712211355e-02
1.281226568880949879e-01
1.193355655248147934e-01
4.937366024844101059e-02
3.745731393512805041e-02
3.113216465408048458e-02
4.109468589178528336e-02
1.449471081315604516e-02
4.973950380541055510e-02
1.176033967524753726e-01
1.272253097968183422e-01
1.941047265408646916e-01
1.253946943830084315e-01
7.854941442938394303e-02
1.241029796734098301e-01
4.904646746549772701e-02
5.003852530507715834e-02
9.055505669643727773e-02
2.108170045900542924e-02
7.689819678836876116e-02
6.046206222236330530e-02
3.736427757330797184e-02
6.470812784569969500e-02
1.214366909358593066e-01
1.462027731697941244e-02
1.052428613666503421e-01
1.153598217968128808e-01
8.407244573287427081e-02
6.997643587452154201e-02
6.804459623678166258e-02
6.306056109990131053e-02
5.232365007310268296e-02
1.011926303339653367e-02
1.252304328749677120e-01
1.092513312576840478e-01
5.001613599638662921e-02
7.010392072826662768e-02
9.529193980364343564e-02
1.226239424389461985e-01
3.658886607669208785e-02
4.224959036020806136e-02
9.675972220825996076e-03
4.812154711988145955e-02
4.717520651590405983e-02
1.088344871676863029e-01
6.760027975303276038e-02
1.070772591439696081e-01
7.840685526015514495e-02
2.952915098155693349e-02
3.094896403245672029e-02
9.549685882942655912e-02
3.680738865392899073e-02
1.507529156142593980e-02
1.806681351504607971e-02
1.299954452062539526e-02
1.878605762811001723e-02
3.086324435600279817e-02
6.082686795898799986e-02
6.595436417931739570e-02
9.961690835005443390e-02
4.399675971459540702e-02
7.774764066748833524e-02
5.260038424489585362e-02
6.622284319527824148e-02
1.223481094179318523e-01
6.529478442343847333e-02
8.473841454253479288e-02
6.212660356440428966e-02
3.234690844331129106e-02
1.688057057744023551e-02
1.094756375377109736e-01
4.253719882715706335e-02
1.611188070248503745e-02
1.011918867548548401e-01
9.823770135760381828e-02
1.504886807187394426e-01
9.543452090752671535e-02
5.057395819509226398e-02
1.117929418275817946e-02
1.009410715543081483e-01
7.712867542015143518e-02
2.980617220897823633e-02
6.925670350898667851e-03
6.293337529647588524e-02
5.803898267494869700e-02
2.383759450631048674e-02
4.397988262274736548e-02
6.617511694021069313e-03
7.021090818704367464e-02
7.301458731068938279e-02
8.499747386030657992e-02
3.386569915143337189e-02
7.118489958528004258e-02
4.500642513920874443e-02
1.306998838559985526e-02
5.014804370914313636e-02
4.238654839985836476e-02
5.469068018642368051e-02
9.125748012038374657e-02
6.083205945027202882e-02
4.475150065620706052e-02
3.859375251666901513e-02
6.032214178258978043e-02
5.427860071871781072e-02
5.821182739828009711e-02
1.347599801156266763e-01
1.408843094709093524e-01
1.071904375210674665e-01
3.287616071928048389e-02
1.466228941862562397e-02
2.511960174398105566e-02
1.708996773864578447e-02
4.987926682854601501e-02
1.054085824897027929e-01
2.839980322100277288e-02
5.248233982996843017e-02
5.202500913452320214e-02
3.833964885662146521e-02
6.692161574721446071e-02
2.140398118511532138e-02
5.009368370249007996e-02
6.677727644423672726e-02
2.963074110748501605e-02
2.304627258973380565e-03
4.978556515348854516e-02
3.814947290673356001e-02
5.031058171292759201e-02
3.845564492676858265e-02
2.120226063291294830e-02
2.305519398362064834e-02
5.292410590533013978e-03
4.629104751649112948e-02
6.663305173841416185e-02
2.391386512337890027e-02
4.465507529837224598e-02
3.845311765273098925e-02
6.091194993176654582e-02
5.268068088561182055e-02
8.639228887644030686e-02
4.448324990737226314e-02
6.390908480923493395e-02
3.480429678430497359e-02
8.006661603359102597e-02
4.538205814003244687e-02
3.979470403496706415e-02
5.929463633663895755e-02
3.711604165996103266e-02
1.607963646660338919e-02
6.049573440381174338e-02
3.874497599699421035e-02
2.016170891736000434e-02
5.566359714813896853e-02
7.165132483336049407e-02
7.832599996805413023e-02
1.571242921868128140e-02
7.556010862699204245e-02
7.859203663145360175e-02
8.189103286781813928e-02
3.597785317279247885e-02
3.627260434551151519e-02
3.514473434693067555e-02
6.760711666797690478e-02
3.909354317630766434e-02
5.685103203125908139e-02
3.364585331355496312e-02
7.107551924079651140e-02
3.415188867820537211e-02
5.494397449180102311e-02
4.627810571187964545e-02
3.012082350922408447e-02
5.368817681397295566e-02
3.303507144109928823e-02
5.831952221706550310e-02
6.155470043934104657e-02
2.677556949370683143e-02
4.356312795108422536e-02
3.496966492424768286e-02
5.770058287718243112e-02
6.212645903684774901e-02
1.847657935785362512e-02
2.418763442908214087e-02
2.938237114093424779e-02
3.605115408062148363e-02
6.580697037489059709e-02
5.007723812278428582e-02
3.192414817725356541e-02
5.984216065343822555e-02
3.078335924304961835e-02
1.281359655189039104e-02
5.378220058265049258e-02
7.224501600299491899e-03
4.088132361259297354e-02
9.979620742575190384e-03
8.638645699527272570e-02
6.175428516645709021e-02
2.086958796808380256e-02
6.832066359508416620e-02
6.558011270361184530e-02
5.832465965914569034e-02
7.981696672321357544e-02
1.441222633095869815e-02
1.746063713877440624e-02
9.316977300710006099e-03
5.966279902279284647e-02
7.201378071019622074e-02
4.362249792057689562e-02
6.493922527803783207e-02
8.673488668541606827e-02
6.468380087278198520e-02
6.871182607811729404e-02
3.445620929723956782e-02
6.265652151250093206e-03
6.171145468950341162e-02
6.312770396728459299e-02
7.906934698355939928e-03
2.192576699506778790e-02
7.999959294007485955e-02
3.233238798734665298e-02
3.683082978168172178e-02
6.866554005736456856e-02
4.286056764310745837e-02
3.844596589656963659e-02
4.005977705810297856e-02
1.452092710649887861e-02
6.304588188422796668e-02
5.423639144149848546e-02
3.908716439200041887e-02
2.715138374905421564e-02
4.207792538059482168e-02
2.469373099998965412e-02
2.890513112872522897e-02
1.129194946652352198e-02
1.319409303291622579e-02
3.884095389921468633e-02
5.517883034622572680e-02
1.282292272059799669e-02
2.614750352092201288e-02
1.473514334469315165e-02
3.686970205640065917e-02
4.561350501398954427e-02
4.016754784543269396e-02
3.562725623627858301e-02
4.982707114945636451e-02
5.509122077312082061e-02
4.387643755339774160e-02
1.853677147440900910e-02
1.225378943087915111e-02
4.305700942691575994e-02
1.633760342234025567e-02
6.795283987924223557e-02
4.682055227439764489e-02
4.990583231125781533e-02
2.758909534214604858e-02
1.758033760665561607e-02
1.976973261584565739e-02
5.504214080342671039e-02
1.049571880307262513e-02
3.839040328149146558e-02
2.629729161787349237e-02
5.371440754672635043e-02
4.192868105842433024e-02
4.884577866884101671e-02
3.874254124089288737e-02
1.772631316680120181e-02
7.401134563639413799e-02
3.823875963852951809e-02
2.695775633689221837e-02
3.125176918721329911e-02
4.990170703801052876e-02
4.069698782080060501e-02
1.522922236794516625e-02
1.870291552138875560e-02
2.507788820169489646e-02
1.299255496012020027e-02
1.524828755940927857e-02
2.697468232415502903e-02
3.723488467698323617e-02
4.575172776617107001e-02
2.999716502691496950e-02
6.403332611536813324e-02
5.015931670668738462e-02
4.692889000635722813e-02
3.560815295016773324e-02
4.131968293231277206e-02
4.094029920647040965e-02
6.300271088603268121e-02
3.790639174549020191e-02
2.497651365396826376e-02
4.445123945670330368e-02
7.375734684893815729e-02
5.750585589279774007e-02
6.050846222685361125e-02
4.828808799995367579e-02
2.416391826963833547e-02
9.809660420648205065e-03
3.251216437441883239e-02
4.515156889311099792e-02
2.478005793840306822e-02
1.828690364291502696e-02
8.240559614295000015e-03
6.658726603101609853e-02
3.776356459092105461e-02
2.926658860850969018e-02
3.420896623697790989e-02
1.139604949503426889e-02
1.761396605187866976e-02
3.926568836330581597e-02
3.851904878443554447e-02
5.211861873940416140e-02
4.686825133878325111e-02
1.888677680589165644e-02
4.174467970522312277e-02
3.305536314689415389e-02
3.875767903934866643e-02
4.594680725919684378e-02
4.754258738896231101e-02
3.662552383819804580e-02
3.588249741054835851e-02
3.243525553534958722e-02
1.305601795689145285e-02
2.800898112918493582e-02
4.756968694072628151e-02
7.951748071687017583e-02
1.127849651790767405e-01
6.175919540353051740e-02
9.773332324686113959e-03
4.622336956167493599e-02
3.175442155028279645e-02
3.492967867712953173e-02
4.158777454407066448e-02
3.030017246554089078e-02
4.891909168272760844e-02
4.114141380583528212e-02
3.101203281128013869e-02
2.539530607980108878e-02
2.314818520863448290e-02
5.241689517780700330e-02
2.167617901160330887e-02
4.945696923855549820e-02
1.046843034628830611e-02
3.539874010373261770e-02
5.942043775060736055e-02
6.137622929795177179e-02
4.043990363893904677e-02
3.102257778544294589e-02
3.212634780529334544e-02
1.135950542331223487e-02
3.418946534630101786e-02
5.611656347952199975e-02
6.903449598264479493e-03
3.201733210436259747e-02
2.938636278070286961e-02
8.139194395527481196e-03
2.621248018887630329e-02
2.741392294252278233e-02
1.545333563787717329e-02
4.510973792479799904e-02
8.987909277912063677e-03
1.211042131194845634e-02
2.275796694754641386e-02
5.917305303215699558e-02
5.553372898897598886e-02
4.142630338679083313e-02
4.303485052957527202e-02
2.200776509163660660e-02
1.615411627489502303e-02
6.385702858074243649e-02
1.108701150755073833e-02
1.954130112801337818e-02
2.622395431072874900e-02
2.360018204549205190e-02
4.257799676879647083e-02
4.539484952580374183e-02
4.122406264940755433e-03
1.825130031117038615e-02
5.526652248346328178e-02
2.374102723386949457e-02
3.519117009519152905e-02
2.780944390224900781e-02
2.742123040038040027e-02
2.020471376193028537e-02
1.217149398302014816e-02
1.800692014909266794e-02
2.582213128433072727e-02
2.608918314527821844e-02
5.995594902382589408e-02
6.383540908316656659e-02
2.433763317177175048e-02
1.402069511355581548e-02
4.961613494123704587e-02
3.225378770837933340e-02
5.535907901255236740e-02
2.200547507830007826e-02
5.142611715473462825e-02
5.228592070857010499e-02
5.025576075396404052e-02
5.410838533771815222e-03
2.683032558090557226e-02
2.671305859741991001e-02
3.667469720797884164e-02
5.622149616245659259e-02
5.823092361242027809e-02
1.938528521901105792e-02
2.617382568438126819e-02
2.778694981471475228e-02
5.942173041157057176e-03
4.017473377901319836e-02
8.958376588113214911e-03
3.547247300631711786e-02
3.027326260211984227e-02
5.058338904984623768e-02
4.424373959132105183e-02
5.148206100780654965e-02
6.103513785754228343e-02
2.983101494313309190e-02
1.926454569416684998e-02
2.426134892584712668e-02
1.922103255941597436e-02
3.350574838989883036e-02
2.082686158888683720e-02
2.038417915166653230e-02
3.284639931951471165e-02
4.984845653191662118e-02
3.745785982729136349e-02
3.298664060940946496e-02
3.948360810876756083e-02
2.014197185800744097e-02
3.206941012999361268e-02
2.746720380653483798e-02
3.048820526894945038e-02
3.558424960805383480e-02
4.368966137397693045e-02
3.195193571728188742e-02
1.840646084569222407e-02
1.928688706868348507e-02
3.226863148078444599e-02
3.911900433648875242e-02
7.345497201873663062e-02
1.705651120754975159e-02
6.393544697643568919e-02
5.554607339962365498e-02
8.116555746848851116e-02
4.045247338776142287e-02
1.192802559908483391e-02
3.415763279164940602e-02
9.714588947264601523e-03
4.846684224298154764e-02
1.238571258739104737e-02
1.209942222143389756e-02
2.405832332177539404e-02
2.663823678582131343e-02
4.714464764445566725e-02
4.129260073421739397e-02
1.798864384738834907e-02
3.056517819416436355e-02
3.026659695860041757e-02
5.016779832434117153e-02
3.767422823235803964e-02
2.888294635487650280e-02
5.018838073427757396e-02
8.178022416541261275e-02
5.789071511125840758e-02
6.303707928022457552e-02
4.151344743269157200e-02
1.393575356216699215e-02
8.163841549924848520e-03
1.093665548591140659e-02
1.782189198061314567e-02
2.323135417111792805e-02
1.865119023298527495e-02
3.085678902478539154e-02
4.604617930964516499e-03
5.993198111435613096e-02
1.632864703413842294e-02
3.908544729730180356e-02
1.627854995828489915e-02
2.373400810371652583e-02
3.259988078824224700e-02
3.726226496307003672e-02
5.659146580544722333e-02
4.527400985259957128e-02
3.524180490660051152e-02
1.500031872817585675e-02
3.110805030131657059e-02
6.694302600496636856e-03
1.632629924220153211e-02
2.289612102656803441e-02
3.067258975456860215e-02
1.334931429169674069e-02
2.639800885344483622e-02
6.527223945587909415e-02
1.373012213390710848e-02
3.132885092263729826e-02
2.913088400425763516e-02
4.278039113862449477e-02
5.025501977261327691e-02
4.465626427419905342e-02
1.884083201655794432e-02
3.127335568875362626e-02
2.151108295218602875e-02
1.034919931097007598e-02
2.089476731667161413e-02
9.764923733713156209e-03
3.569676737450771381e-02
3.233441126840338325e-02
4.528548452764134119e-02
3.188024725938357062e-02
1.337451503895861239e-02
5.936941435722008220e-02
3.094614218094782904e-02
1.255156089469440864e-02
1.371918107623244440e-02
1.418322762761468556e-02
2.184521058181806627e-02
6.059359934016596977e-02
4.061970125785750035e-02
3.251005727776450777e-02
4.268399762340924219e-02
2.616751359800431609e-02
1.979965447807999213e-02
1.473568491202970412e-02
1.285569955958231793e-02
2.993915307128938372e-02
4.651828279749531392e-02
6.853925958509145266e-02
5.370491832614190941e-02
3.125338244454455017e-02
9.083086734734307013e-03
2.105907385701406495e-02
2.770412698467439663e-02
3.658155331986988335e-02
4.246891262361098679e-02
3.310796902968224376e-02
5.538774591057064184e-02
5.441114649136197245e-02
5.009821808124687720e-02
4.265607989535463024e-02
3.175088340285363298e-02
1.368901505273767590e-02
1.394014800893399013e-02
3.182921707174128298e-03
1.125515810472114270e-02
5.785883078748359221e-02
1.842109429770170601e-02
1.010459578876219539e-02
1.476230401550215204e-02
6.562415968919189067e-03
1.008081439968371192e-02
2.889657800311895217e-02
2.321560782690858943e-02
5.606299704555164909e-02
5.714516400070342173e-02
1.122801274450676429e-02
2.177634557725994374e-02
9.120193826820967992e-03
2.135650230339539157e-02
3.042435179683792776e-02
4.979727770444258850e-02
3.943256004921486674e-02
3.567992530084539149e-02
4.667009517116824102e-02
3.235199652712335283e-02
1.839684312616397810e-02
1.303357081620281927e-03
9.783088876006429402e-03
2.780263978238648945e-02
9.295546012497386823e-03
1.704494751656101398e-02
5.880682882600528349e-02
1.941856323582637558e-02
2.436927456769919648e-02
2.681808976459147328e-02
1.503893665091359834e-02
1.197538406378291509e-02
2.315145735116130865e-02
1.010445245579965484e-02
4.629618348985581333e-02
1.902049048349474872e-02
4.794905661586680579e-02
9.316197243540392733e-03
9.031905799573174826e-03
1.624655836986340501e-02
1.873741131067681309e-02
2.847687160188962577e-02
3.278072123177595831e-02
4.496822587969625390e-02
3.901936148200126769e-02
1.028507700725318080e-02
2.314420734516710321e-02
2.239977799896182217e-02
1.888981670303452667e-02
5.267593674972152057e-02
4.513134499352515483e-02
3.294281569721504294e-02
5.030296768162079851e-02
5.232756365677550259e-02
1.390543693537215318e-02
7.771704825722054039e-03
2.377523147768033016e-02
4.141248252445257905e-02
4.807612365205733707e-02
4.771862012057965369e-02
4.188556989043298873e-02
4.163029226285889367e-02
4.661391593170161052e-02
2.798578249564060219e-02
5.056427690950308224e-02
1.963379266899912753e-02
1.163722749816987340e-02
1.409264877332867816e-02
3.461681295357661031e-02
2.830496414278296097e-02
4.252578534299892438e-02
1.615574522058823431e-02
3.712397943107278997e-02
3.223252132861996466e-02
2.357794162775532845e-02
4.799881287670687384e-03
2.379993224047528833e-02
4.359291843141579331e-02
3.916743922955705226e-02
5.693143308464618767e-03
3.705957978551198406e-02
9.082869275217333657e-03
2.080539613297822249e-02
1.209028765462466168e-02
3.216811212135720858e-03
1.737513909132405721e-02
4.425857123243487519e-03
2.385349633184770390e-02
2.794584041232946875e-02
3.584994030933114778e-02
3.487705699701870721e-02
3.160417757515089632e-02
3.010777370083041540e-02
2.906321826635556091e-02
3.478097655603284641e-03
1.717800707598681484e-03
4.151819100247169936e-02
3.337242229130964882e-02
2.057618747289835168e-02
2.439390580348374526e-02
2.315478796545404269e-02
1.016621238611468796e-02
2.202711969299491618e-02
4.965783122097593150e-02
6.160883567947705863e-02
5.171750853757165617e-02
1.318189838144583938e-02
6.001939740546682889e-02
3.614367052153572013e-02
6.999909355422080995e-03
9.927595782318244036e-03
3.877270154568047966e-02
5.948493829705531893e-02
1.663252563495326922e-02
4.578854582220766301e-02
2.910985042664377895e-02
5.809838862316715064e-02
4.891395119062189045e-02
1.332413555721175501e-02
3.870945727926387858e-02
1.548531673195697837e-02
2.309073964291970954e-02
1.965029998678838319e-02
3.491949680385751653e-02
8.118170441248982738e-03
6.792416539314834190e-02
3.843002276176837873e-02
1.618104216980375404e-02
4.011882877602083314e-02
5.487697950290623683e-03
3.437907278869534872e-02
3.929107821593334077e-02
2.139544377016813770e-02
1.414199919530203728e-02
2.562040742441768632e-02
2.880401226947269799e-02
2.532880949424053466e-02
1.534073231124984636e-02
2.979134211363399648e-02
2.943730954361061664e-02
2.691516495685994381e-02
2.619618706124745081e-02
5.029531066173553028e-02
3.540889636553246067e-02
1.296460635645967779e-02
4.496534555736245858e-02
2.491851066509610801e-02
2.471907641762618665e-02
1.623308916805314348e-02
1.904023444737300286e-02
3.968316987691399012e-02
2.506330581862980036e-02
4.184938139205070934e-02
3.138998768142060858e-02
5.704230922715421148e-02
3.229340679256475360e-02
3.377700389935665848e-02
4.440672641716063296e-02
3.199078653086008528e-02
3.676671388645617183e-02
1.302819544321353121e-02
3.559712499296127652e-02
5.308058797644882310e-02
3.819748810030344777e-02
9.600049908714984592e-03
2.816490074810666308e-02
3.054682296524465629e-02
2.232192932674907995e-02
1.545990437831554210e-02
3.819586953392016537e-02
2.467372795050286338e-02
5.096200691731408647e-03
3.349441692529130099e-02
1.929880300763468087e-02
7.005672858331754745e-03
5.696043801010568230e-03
4.022708491111178473e-03
8.912077905422767163e-03
3.867736596925015063e-02
2.544381134836151692e-02
3.224706467270477273e-02
3.547368727982900399e-02
4.556303327944618425e-02
1.243885419930208444e-02
1.318687395010590714e-02
2.298689717743772343e-02
4.258948707106387926e-02
1.390966147958143904e-02
1.599993747576953715e-02
1.900187740470641110e-02
3.200102051693921867e-02
2.871644466489143774e-02
3.182412323204602406e-02
1.301286100549516739e-02
3.343452386779248442e-02
3.857214317129303849e-02
3.305395382287142775e-02
1.583378926899270400e-02
9.665627704183391705e-03
2.677713362730089683e-02
3.803767329582771750e-02
3.037212273345619648e-02
2.619077134297228410e-02
1.151797585297449980e-02
2.491440879601924258e-02
1.013704067726060865e-02
3.703126845817725221e-02
1.245989578211906083e-02
1.529973657667641623e-02
8.548151195120444468e-03
3.244962926978130907e-02
1.476289342672331903e-02
4.334805766412308525e-02
1.750529681195294590e-02
2.717670509660670419e-02
1.009174860688340225e-02
4.322557537198864347e-02
1.369570246888772436e-02
1.842375478591468455e-02
3.403464328307511527e-02
3.971538600185441081e-02
1.082462113999737435e-02
4.449275601391112361e-02
1.302642530539300549e-02
2.564809230457950479e-02
9.427504568527167797e-03
8.173141076459019758e-03
1.583449568585109518e-02
5.906150479460580381e-03
2.139547295195234899e-02
2.101517335514352380e-02
2.780373006026982605e-02
2.056017808529480087e-02
4.125550291683888204e-02
1.337039025027079997e-02
1.559328094423362288e-02
4.451177010573660608e-02
2.457062572654327912e-02
2.444202562161431475e-02
5.697282507099700466e-03
2.615341300549925072e-02
3.714605859300090102e-02
4.963356404576155234e-02
4.814739469447973375e-02
2.350960234678865779e-02
1.321813918508453825e-02
1.464855855651518886e-02
7.271014466036151633e-03
2.994240011986644412e-02
6.892961044675425218e-03
1.665957003814340712e-02
1.183944001015379936e-02
2.378008314299394355e-02
4.373724431059002569e-03
1.402940003088860334e-02
2.222173568704167643e-02
3.769100156691533587e-02
1.933078230306077214e-02
4.032845568516103818e-02
3.333024133118763638e-02
3.299118473592049100e-02
2.579159801600649365e-02
2.161224354398327135e-02
3.765362091598834643e-02
1.474570300161936326e-02
1.740805851385634345e-02
1.345283438972762549e-02
1.368836322070707961e-02
4.272902925109822031e-02
4.687362496312189736e-02
3.797554609560484240e-02
3.291177742067495637e-02
1.931519911258806552e-02
1.770622489791725054e-02
1.547270378004283325e-02
1.829883910127066624e-02
2.234142772584539471e-02
1.897439724652869725e-02
1.406390568449249201e-02
1.118430106743575556e-02
3.983566137940573043e-02
2.894106418500390354e-02
1.803227886292764828e-02
3.339904602920013704e-02
2.718608169812396919e-02
4.114312581483874770e-02
1.645830716695860160e-02
2.105655564271487201e-02
4.618013590882680958e-02
2.340934767498233093e-02
2.314404910434718701e-02
2.671552233516671579e-02
3.463387754978147770e-02
3.826491586431560871e-02
1.722793615107609880e-02
2.361992626019330729e-02
1.491487868671857731e-02
1.683399692809435869e-02
9.220185263559025832e-03
1.344586795183667395e-02
1.080548798677839241e-02
4.196498538632428138e-02
3.554209478891880158e-02
3.667464766855092761e-02
2.939899342943702240e-02
1.350985947658000542e-02
7.130844535776035414e-03
1.863075674688953812e-02
4.625775900640095861e-03
2.974842761013336834e-02
9.944845560091800096e-03
9.230515916898298506e-03
5.912457001922940408e-03
2.395293723920215861e-02
1.458998039854082426e-02
1.588036851983430642e-02
2.449372780023614457e-02
1.503586824398092138e-02
2.100833271084152215e-02
1.580762133988812199e-02
1.889760199506834715e-02
2.168347406137373368e-02
4.352858058409445757e-02
1.812875907629602282e-02
1.408789528177380526e-02
3.444264500937525841e-02
2.343307039997388763e-02
4.832624433084071851e-03
1.331552626425429667e-02
1.380207835164827881e-02
2.043353588083571259e-02
8.024228780876883557e-03
7.379750312077694441e-03
2.319803355022715535e-02
7.524489749590865598e-03
1.061891304545319395e-02
2.016198190941879617e-02
2.790610463603359834e-02
2.466743547420328225e-02
1.160889920553521797e-02
6.679289884524614723e-03
9.268508419512299853e-03
8.424491028006401983e-03
2.880946272139355436e-03
8.629877913646959511e-03
2.101786481901482193e-02
1.852783944229058344e-02
2.076346895549538094e-02
4.909957436901841478e-03
1.398985077375535652e-02
1.624660357055265555e-02
3.674441577074625143e-03
1.433588847974147547e-02
6.170861340259033330e-03
9.406331469043179710e-03
6.591046813281379452e-03
2.114363043214245730e-02
1.790322105887911727e-02
1.791965569255651869e-02
1.940422850663226645e-02
3.787640414868979899e-02
2.173139965162929413e-02
1.041467678038212295e-02
1.873718633577027212e-02
7.067535991807733821e-03
4.738795892008828420e-03
2.396215712979865575e-02
1.103774212575897758e-02
2.268194644740142204e-03
1.651545111430031965e-02
1.531339126124223356e-02
8.658290594208646607e-03
1.410962386102005556e-02
1.924285293485446247e-02
1.260484894549397661e-02
3.215424916580496284e-02
1.624320952891849038e-02
1.462202882269781831e-02
3.198774590249326560e-02
1.610017770105974869e-02
1.910593163318053539e-02
1.511692157297233816e-02
1.500369030084369205e-02
1.124393714730118933e-02
1.635087596256120171e-02
1.685956363503093511e-02
1.290912531193574679e-02
1.180989018050312284e-02
2.083084994039625937e-02
1.803512432885338856e-02
2.118043038165622408e-02
1.059485304266360658e-02
1.751632590179104734e-02
4.573081141872730251e-03
1.336882445435958258e-02
1.817927832495942406e-02
6.441504530072699949e-03
1.042349054219368631e-02
2.100565641133700714e-02
1.843692730349687919e-02
5.676100658853839437e-03
1.096348224307834920e-02
8.240374780341140626e-03
2.809363742275393719e-02
1.655741092282500548e-02
8.353816533458156141e-03
1.453518951674917167e-02
3.159013656128666081e-02
2.076521581834418068e-02
2.463859313089634615e-02
2.396195254465308816e-02
1.394852837545283893e-02
1.655507741148241202e-02
1.866952275846176651e-02
2.977457474655531653e-03
7.587380321002418562e-04
1.304484307087262762e-02
1.035048191082125167e-02
8.939645886245180945e-03
1.447675077883837230e-02
1.117836067696052239e-02
2.072727322514583692e-02
1.031842345088093693e-02
1.110225875514270905e-02
1.833623835908757341e-02
1.130155938132922956e-02
8.433037027146489048e-03
5.421413308978433911e-03
2.868075795024004841e-03
9.927972172803603210e-03
6.845447539218499876e-03
1.112621866440594541e-02
1.132163315865859603e-02
1.271104657407452591e-02
1.575438395363752339e-02
1.962053660688555315e-02
1.044917267935381588e-02
1.067820881838352394e-02
9.693250095545525094e-03
1.548051100381812178e-02
1.128667549705081839e-02
1.053096489704044222e-02
6.361570831197794172e-03
1.861070989266127088e-02
1.521683533777626156e-02
1.123562131960411520e-02
1.202015416136323171e-02
1.405192780409500464e-02
1.059314316355516351e-02
5.806962618396829985e-03
5.196802768289619789e-03
1.933528139449686156e-02
7.586892330398472065e-03
1.825961826887010156e-02
1.042245048731785424e-02
4.761838715331981157e-03
1.118919638387935039e-02
1.513345436152013952e-02
1.375603458136902962e-02
1.342157076650221659e-02
3.284995685853716457e-02
1.226919563343351234e-02
1.572259804850464904e-02
1.576557538696715666e-02
8.189750751122572975e-03
1.757573693335104728e-02
1.056471606360206809e-02
1.625394967375377170e-02
9.457696837949305241e-03
1.735811241875472033e-02
6.709047217165180037e-03
1.092506333090947392e-02
5.559425983195689577e-03
1.069204493506827058e-02
1.579890757027060944e-02
6.290450802778600921e-03
2.264469776856926561e-02
8.696601363550587188e-03
3.354628747745041356e-03
6.237738754831535434e-03
1.226717144171852493e-02
3.157951459019384555e-03
2.670913211986784049e-03
1.023545545603454093e-02
5.178092174311042621e-03
5.849462454239956997e-03
9.837284823022139982e-03
9.129279029929483064e-03
1.095386162179933301e-02
1.117830003525340996e-02
9.218037592806520991e-03
1.185466188897846621e-02
1.491987420738260205e-02
1.133484069626982359e-02
8.800093800363614077e-03
1.163509777372795026e-02
1.418336458300214174e-02
1.024400526676398984e-02
5.739160136065716081e-03
7.083661595410497593e-03
1.121631480474509328e-02
7.832036770589573607e-03
4.038886856893964851e-03
1.442029793911527892e-02
1.410898142640939004e-02
1.507921335980699599e-02
5.769010020048102698e-03
1.142586031772451806e-02
5.953490919954615608e-03
1.716089067070734886e-02
1.742630887616023264e-02
1.381347977828258772e-02
1.798576624927917048e-02
8.200217101272531256e-03
6.617486025579288368e-03
9.452686023118357997e-03
7.528051513481818710e-03
8.400062852151906137e-03
1.685371985139791709e-02
7.788216652891657987e-03
6.623240917786190653e-03
1.094582303059785100e-02
1.416092411227388992e-02
1.040048800431760123e-02
6.429846338182247309e-03
9.107274655383771830e-03
6.488617524199764668e-03
2.814232698231147658e-03
5.197274382808300241e-04
6.383023584003571886e-03
2.969236664605476653e-03
7.399684762118674715e-03
7.912165550730897168e-03
9.131545219726458842e-03
6.184556689285373478e-03
4.528831970531714546e-03
7.165121032020289188e-03
5.557392517505579596e-03
3.736985734828901355e-04
2.653345260914425578e-03
8.577446293698214042e-03
1.162233360866786296e-02
6.503406383888079949e-03
3.983895887512541208e-03
9.874832091731436737e-03
7.937422232955924917e-03
2.441796262066810511e-03
9.516462422177766542e-03
7.465414779123534864e-03
5.837478241791592068e-03
8.224560978382370463e-03
7.462536459916361588e-03
1.574817947949270786e-03
2.738768770104817521e-03
4.644509555856452671e-03
4.981995821827452792e-03
9.857781244977385088e-03
4.464916236236621608e-03
1.001795539895800058e-02
1.748659172017508591e-03
1.052312046397146017e-03
4.437241070686301185e-03
6.900765839183891324e-03
1.238646634411016620e-02
2.773301106756890372e-03
8.549952657560923666e-03
4.022632744156347598e-03
7.793473012153068029e-03
1.361794472143532976e-02
2.352109552434784780e-03
3.863648109922236153e-03
9.031965939215767097e-03
9.871776948190942938e-03
7.823041035766807247e-03
1.899992584136559956e-03
5.606895077020716822e-03
6.987786990119120977e-04
9.561262207110617778e-03
9.776610819459677013e-03
9.431947313583190218e-03
1.608969920968789970e-03
2.697348841126052943e-03
1.053575486658997473e-02
1.208800971829896743e-02
1.307298097534667115e-02
5.326542287342731288e-03
1.097594907048876113e-02
5.003718926323935841e-03
5.460602148109046892e-03
1.055939656312132602e-02
1.231386345012123367e-03
3.291299137034594743e-03
5.114892967098064180e-03
5.769161980500705882e-03
3.887266210040588553e-03
7.950406257081314709e-03
5.128218220885487344e-03
6.961396204480448102e-03
7.634367692068207839e-03
2.425106342789797205e-03
4.018384608964364890e-03
1.747319055988330507e-03
5.199205254810844445e-03
4.440852862591561888e-03
8.909956230654880738e-03
8.360401365774318763e-03
1.490715761675534155e-03
4.476370509418161649e-03
2.620374141913819205e-03
4.629450887442228442e-03
5.863043276016664460e-03
3.441621001248534005e-03
5.316876029786908944e-03
7.788115813593516311e-03
2.491938825856082704e-03
4.512254006614881650e-03
6.089490638830882645e-03
2.384903097293662993e-03
6.618307646305048898e-03
1.182061281179374581e-03
4.677689521761449649e-03
6.080051477918263503e-03
1.530136992443077671e-03
4.931352682291569554e-03
8.469972086249603904e-03
3.568153701208337612e-03
5.967309701293450029e-03
1.562701455844043609e-03
3.471320886269470534e-03
4.356578379227945760e-03
2.169440717798112091e-03
4.643920112208154392e-03
2.997870445486057033e-03
3.256444409597864572e-03
4.269646614211295745e-03
1.168814289352693072e-03
3.106688121606900575e-03
5.227716414038414104e-03
1.160805337331164300e-03
4.002780389026770053e-03
5.375335189776181063e-03
5.672582681255406052e-03
7.414585399888871595e-03
2.438715475624728558e-03
8.158384241073228516e-03
3.723241951575642465e-03
5.321190286334528952e-03
2.076031853303191878e-03
1.214053550615267884e-03
2.381680520827840659e-03
4.714054436982854923e-03
6.521017846288368206e-04
2.869911042417514976e-03
2.870708532434756034e-03
1.899832092309312274e-03
1.877603340498220589e-03
4.151520455971805142e-03
8.029612526883795481e-03
6.496814100826174727e-03
1.577193451400782809e-03
5.274677585538807729e-03
1.301424991271376425e-03
4.609776371188523819e-03
8.552474653415480590e-03
4.734995799311862014e-03
4.342001838676823149e-03
2.390214306303442993e-03
2.749255361619776586e-03
7.928330913531478688e-04
3.951996017695002736e-03
3.952310764754498121e-03
6.147240506593571125e-04
3.861256493642766397e-03
6.412035164808382176e-03
3.599210813809274132e-03
5.917835742214426833e-03
6.094262070038235224e-03
3.385486911857716122e-03
4.153741851525861832e-03
4.546215002381188280e-03
2.048626240144777334e-03
4.788133030132800741e-03
3.138241791986699693e-03
3.329657548239508234e-03
4.821566611629544107e-03
4.403365755844653590e-03
5.919997282835892053e-04
1.072807350916858563e-03
1.539012188630047972e-03
4.125673788807539960e-03
1.144814672267739598e-03
1.521254106182135446e-03
5.457113192354805242e-03
7.471643453126542616e-04
4.389303183853040212e-03
2.939628294384929747e-03
4.646054822723804170e-03
2.162024272567730342e-03
1.790580847145687533e-03
2.089639518024603588e-03
1.372909277616564134e-03
4.933583090026925216e-03
3.040606283692209432e-03
1.457971904710690008e-03
2.021090132068874192e-03
6.281623949748974846e-03
2.579360800672112972e-03
7.884892037541739798e-04
3.649171818099042602e-03
5.747008071078226702e-04
2.372542004998508171e-03
2.775177369469957866e-03
3.296036846101798451e-03
4.165741192946557751e-03
2.503939560303642623e-03
6.137438989050826750e-03
6.334851566675723557e-03
3.415785768074133984e-03
2.506613811608979225e-03
3.137233412551544264e-03
5.234760756855220618e-03
2.414772283454686731e-03
2.973953845469535194e-03
4.086804742354313742e-03
3.309455585624988382e-03
1.464338881512765051e-03
1.297295651148795866e-03
2.293848663484411316e-03
1.979781884765090521e-03
4.072548043641497154e-03
4.027983560705331728e-03
4.619611274950871996e-03
3.882396458835282900e-03
1.324717499525999986e-03
2.625324805178656882e-03
4.059259012638843922e-03
2.756616311122578149e-03
1.972296536382602081e-03
2.153351531537898295e-03
2.419612855021211189e-03
1.192204055717906728e-03
3.049380554015821473e-03
2.036972271389350837e-03
3.781193983447023871e-03
6.334421384516743985e-04
5.081089183901013780e-03
1.778010974426787964e-03
2.972115504180955665e-03
3.147494179759796704e-03
3.693927854973604995e-03
9.868804611183317615e-04
2.203310057654158782e-03
1.346645977811596713e-03
2.478724300993913245e-03
8.847616915353634457e-04
1.038639637209840937e-03
4.393056457037853094e-03
2.040670821697437593e-03
4.501547704003452705e-04
1.037766675549869379e-03
4.521180278041193011e-03
2.373665644479524932e-03
2.155914113914983443e-03
1.823649143407231939e-03
4.400006295512702559e-03
1.937151513186212946e-03
6.959887052523259718e-04
1.839637924646070517e-03
2.543223791332853683e-03
4.224534812294494963e-03
3.170262852638302490e-03
3.347504047663862285e-03
1.169333635590267314e-03
3.863432994700707196e-03
4.129502682836148908e-03
1.026410301923286021e-03
9.452659951480855017e-04
1.729818229113530602e-03
4.186736541861978828e-03
2.148267439517830642e-04
1.837587473520433268e-03
2.597940291697506832e-03
3.389294592504047288e-03
3.789734029962855879e-03
1.296695749051793517e-03
2.281284511992232207e-03
3.112151842366398923e-03
3.943693783737135805e-03
3.262092809816318894e-03
1.131909948824622123e-03
2.480390258492058773e-03
3.765163547791429595e-03
1.825166415844819761e-03
2.242439770293831909e-03
5.705485656973014342e-04
1.281009777019082594e-03
3.210877867465066361e-03
1.140383576298930257e-03
2.448861741772733608e-03
1.158308793104873263e-03
2.320210771869819864e-03
1.908506461954135019e-03
2.411032184370791656e-03
1.367183159757421381e-03
1.103815339637706592e-03
1.499783022656341405e-03
1.924989436098302432e-03
9.388375075378726066e-04
3.737156304545372586e-03
2.127978808180934923e-03
7.731770893705729002e-04
1.982459159213415239e-03
2.090110883769778338e-03
1.270928117377528865e-03
1.523456338643574789e-04
1.267491069614051433e-03
1.605621967585397439e-03
3.655655527031583581e-03
2.395018128877893660e-03
2.576259501181438812e-03
2.019130625737320956e-03
2.608733173105511494e-03
6.406071561766425422e-04
2.320238407752932188e-03
1.038674344845070315e-03
1.467909056161677403e-03
8.486727135622500542e-04
9.941986467289513820e-04
3.050236103586075921e-03
6.564511112032693106e-04
1.718468721546994801e-03
4.100089753039147869e-03
9.903795660694142151e-04
1.857825079302036306e-03
2.941604102063555531e-03
1.426365520896060845e-03
1.152953200857436983e-03
1.340886366091713919e-03
3.807189603386077967e-03
1.872937584562795171e-03
2.184372128338770130e-03
1.585502608344754698e-03
2.122775654959971163e-03
1.187874285526178226e-03
6.758248394532179832e-04
2.002703410163618556e-03
1.502509801055907116e-03
1.163194521495310683e-03
1.108303357318697786e-03
1.499733050683720297e-03
1.847028827679157758e-03
1.604128668173398142e-03
1.329660176853755685e-03
2.012777334086390379e-03
2.532874412654358555e-04
4.096042402173287120e-03
1.474261724164926523e-03
3.472780254278762398e-04
9.683584671746921614e-04
1.005384918606063539e-04
2.226154441389916090e-03
1.821665886234592312e-03
2.736119522646035356e-03
1.920155444627746075e-03
2.089513874946162704e-03
7.048445865957079235e-04
1.231796687984393259e-03
1.646037462999229168e-03
1.347946722409750333e-03
1.993302403152934395e-03
1.826947262166201064e-03
1.492775652380590092e-03
8.240924408479164505e-04
1.514644864336728595e-03
3.076540318295158897e-03
6.402543243928923624e-04
7.232813369854111359e-04
1.856254711262455507e-03
1.838546059505337654e-03
1.931023289288051224e-03
4.291499617394160045e-04
8.498711766766881264e-04
1.203157908823807715e-03
3.328442659203421157e-04
6.082773599711271831e-04
2.551605982192683281e-03
2.123060113695330892e-03
1.175020281863512059e-03
3.882061444915706617e-04
9.381403635981070939e-04
1.254366191394099168e-03
1.024130648746156671e-03
1.667555442493697318e-03
4.885668157514452999e-04
3.408537759236366597e-04
1.426832688545619015e-03
6.568956088444201976e-04
7.722704896994209102e-04
9.835635559494423138e-04
2.740370609014788038e-03
1.593054709685596962e-03
1.633003601813272669e-03
1.253452525498458935e-03
1.236709016651307185e-03
1.277734993742138533e-04
1.907749461979112333e-03
1.995355032390457375e-03
1.655335140165288630e-03
1.480121472549353638e-03
7.953592547082509500e-04
1.510890117898978750e-03
1.268970448021147215e-03
8.717017159998803784e-04
2.419562775803274588e-03
1.006035139849962732e-03
1.361008024145217215e-03
7.370219450595266513e-04
1.035523845695789872e-03
8.889174076628858978e-04
9.464328542161370419e-04
7.080088180339826629e-04
2.264304533927423077e-04
1.446336057069593731e-03
5.072525791170282320e-04
7.294629445352324203e-04
6.992733033809952776e-04
9.797780900358420055e-04
1.517469171637131397e-03
1.375503559895073806e-03
1.325769242467920170e-03
7.731841927190813641e-04
8.672479721765558643e-04
1.007442232155024691e-03
7.001824458569919909e-04
1.061550885457549160e-03
5.432601312192870090e-04
7.858611843082718811e-04
5.884750413885426372e-04
1.847987168932429180e-03
5.876172799227904813e-04
3.389393762076631277e-04
6.012293715269156772e-04
8.810665578210427314e-04
3.449622569220805427e-04
6.870664981782319139e-04
7.461231614367124258e-04
9.825477598337578264e-04
8.599340988246936780e-04
1.291397144721843785e-03
3.648005806122559501e-04
6.958690671694251883e-04
1.019993970552900489e-03
2.199634260760596012e-04
8.519821073396017684e-04
1.208751058476293348e-03
1.407657473458201990e-03
9.895913790278331595e-04
6.496593346961887548e-04
1.330314046544731369e-03
1.438126020336211088e-03
1.417796639132336061e-04
4.154992057782254606e-04
7.650959234690051826e-04
1.345760901501490527e-03
1.206006976944226606e-03
8.484946261531922142e-04
1.464971308784618126e-03
7.222911184833721073e-04
1.096605161404985576e-03
5.054963195787335120e-04
1.294664330695142768e-03
1.071382819261855251e-03
1.190309359942729557e-03
9.918975577467533441e-04
1.578494228890820958e-03
1.534006213833612143e-03
4.761130029515001690e-04
9.125667863488808301e-04
6.267779244814271952e-04
5.495522191917349931e-04
1.107026033946500012e-03
1.346443023588171682e-03
1.508702573905461135e-03
7.920006647857701131e-04
9.747952875606029138e-04
7.876878993950283108e-04
2.682317426030567521e-04
1.060184602151749292e-03
1.089396993997467956e-03
1.511531200654944902e-03
1.088586990873520932e-03
7.000022291014720843e-04
8.803998914445629407e-04
1.578108413494553643e-03
1.147773126125442491e-03
3.292578943760999361e-04
1.089538550465075353e-03
8.740828089907446037e-04
9.337608822368733503e-04
1.432854886325850719e-03
1.239160835956255391e-03
9.653088003906631518e-04
1.057289776460012057e-03
9.058545611720471898e-04
4.384004619076389592e-04
5.734034240096686288e-04
1.371265274875233886e-03
2.755490488653055607e-04
7.693696155360602723e-04
9.089865294108841372e-04
9.845313017661993463e-04
1.025219614555401533e-03
1.365871763712723543e-03
1.106748077897107881e-03
5.731970942434651446e-04
5.479193098996788455e-04
9.031282161439910553e-04
5.018870779276080659e-04
1.071412411515652819e-03
9.970868938594002352e-04
1.152852508593264292e-03
5.846406705137307874e-04
3.889857333328119592e-04
8.308434718367589547e-04
8.529649364268381993e-04
7.690523686174527461e-04
8.056954884001956557e-04
1.265219696456055740e-03
5.296173020004887660e-04
5.076405237756984436e-04
8.200523167563683559e-04
5.795153981877431510e-04
5.138018061080138182e-04
1.168425777940320515e-03
7.483283042161443903e-04
4.796635562954186028e-04
1.140381938867421731e-03
6.309659307912179058e-04
8.824132657281824827e-04
1.417373963170513382e-03
3.400157400189430862e-04
1.183786754130023659e-03
7.175316608365559260e-04
1.226200985901687752e-03
7.591709750272668082e-04
2.872160151398277282e-04
1.002048881664467520e-03
7.108473559754339369e-04
1.196390513499405190e-03
8.798086000161768703e-04
9.240173491940119896e-04
7.442954109331086825e-04
4.328502172794145984e-04
1.091136865443231765e-03
9.708861977250948837e-04
1.060419199582465733e-03
1.311564909238886311e-03
6.579914261063908630e-04
1.075292723583902692e-03
1.279317834166083297e-03
1.433865789441867442e-03
5.788658103478105769e-04
5.900131530171929010e-04
9.030847796368173062e-04
1.283687248697282755e-03
1.091512414062059807e-03
8.018580481340309603e-04
7.786505838335666500e-04
1.286866317803028476e-03
7.552096433270159663e-04
1.113970936834420087e-03
1.216494973653598540e-03
6.134748387141967553e-04
1.172622637461574529e-03
1.071044777779186705e-03
8.618814380261933302e-04
5.219954117308745790e-04
4.751760617450811672e-04
1.004523051899006147e-03
6.370055031484217478e-04
1.079225364323889479e-03
5.931230385806728154e-04
9.702354949067457492e-04
6.391071149302486728e-04
6.361178820016652339e-04
1.222922727342623615e-03
1.006944481747223345e-03
1.117725483247933175e-03
8.465411491154270626e-04
1.043155644822836006e-03
8.273422704978792034e-04
6.666341628263147559e-04
8.717437556866630037e-04
7.991883241412954487e-04
7.023084531358004872e-04
8.796705497391489907e-04
6.976560557244950627e-04
6.345947734663436425e-04
9.582509651033400272e-04
9.658656472817488126e-04
1.005096929646202061e-03
4.938572695111207757e-04
9.258829144801818426e-04
6.097723178550749044e-04
7.995685473374287023e-04
8.545152556603449181e-04
5.833140121065290284e-04
9.738820651470937988e-04
1.110505144851126232e-03
8.968541331604567169e-04
8.054439580166838659e-04
3.722843584123904938e-04
4.405408266922476506e-04
5.081007351523876862e-04
1.148940103947752736e-03
8.721563683086558339e-04
7.456472005617840841e-04
7.733615101907038904e-04
7.239533299538158419e-04
6.579651737740811095e-04
9.725923717561776958e-04
7.654987346814553020e-04
5.487618818034456242e-04
8.933681173260278694e-04
2.424954032106306436e-04
1.048083497986916027e-03
7.347829279049828983e-04
7.636809317246151920e-04
1.119064435354458990e-03
7.113009570925018198e-04
9.795062251128055630e-04
5.612307486210696677e-04
8.938142338279290696e-04
7.916360504256445300e-04
5.796698590339766522e-04
6.788857305332832289e-04
8.000929681674783401e-04
7.097049512021527630e-04
8.279375943240589860e-04
7.986683045350240337e-04
1.171210126124026807e-03
7.594463715552268995e-04
3.089455034945613960e-04
8.219737992326259755e-04
4.346796451566961226e-04
7.221125871122821994e-04
8.349179226692659845e-04
9.430220737582461045e-04
9.865737047708622500e-04
6.002443576646670836e-04
1.079211168478324450e-03
8.817402842957009108e-04
5.020790522363489288e-04
1.293218919383230629e-03
8.098831158330048203e-04
7.181536283660931198e-04
8.964282250645832931e-04
8.352342752381254967e-04
4.591771958634594691e-04
8.213336175275214599e-04
8.178748255775181424e-04
4.654704055784992796e-04
8.425077737959031556e-04
7.335649911352902942e-04
7.298929863347408762e-04
8.358487379156822640e-04
6.795756075059601132e-04
7.019846702568426555e-04
9.461474788401720961e-04
8.121163662021605974e-04
7.151558061751853981e-04
8.002977937594417997e-04
5.468796177766194720e-04
6.855321161984308503e-04
8.921421141423120952e-04
5.832867942704238716e-04
8.970718350279540537e-04
7.810327785800377613e-04
8.581794258759372013e-04
9.298248636645525204e-04
6.584298878060989083e-04
6.301251899642129140e-04
9.628810798907240943e-04
5.446168467398323750e-04
8.153608653653552198e-04
8.363772843006008753e-04
7.967323503997271114e-04
8.941996299849160491e-04
7.199917535131340621e-04
7.857739103496412915e-04
5.220808226293002525e-04
8.854308770210435548e-04
5.969440604488769923e-04
9.435328763896351978e-04
7.512723132689311809e-04
7.176902414195897176e-04
6.585313910580144897e-04
7.606960216368576118e-04
7.937998133408934219e-04
9.531601936089397408e-04
5.802640657451821251e-04
7.052596466895729495e-04
8.185740953755187618e-04
6.939328612456031236e-04
7.027071285807042498e-04
6.777591516271377122e-04
7.200651377104282233e-04
7.638748667979528570e-04
7.296846046423206703e-04
7.797424196357347331e-04
6.192062285996602182e-04
5.126960628465785123e-04
7.514815271022709259e-04
6.615093276233946799e-04
7.723393688516567166e-04
7.761205494866264907e-04
8.472396872920575327e-04
6.988961429883758713e-04
7.584903419835963998e-04
8.611938282294287310e-04
7.522651012473465610e-04
8.402105308937749938e-04
7.736996314100225538e-04
8.071912641377813804e-04
7.662044886795814315e-04
6.647894227996933077e-04
8.172853575071703036e-04
6.151687584435211248e-04
6.307995482215902243e-04
7.253930193702609955e-04
7.293275690433450968e-04
6.331642329322993961e-04
8.032418140011839515e-04
6.978456342243128220e-04
6.173948405725763382e-04
6.432042398578750745e-04
6.038118468415178044e-04
7.196519014637847754e-04
6.712181386589789484e-04
6.667252522374670894e-04
7.430074135314897145e-04
7.972580644730212305e-04
7.376085688673914009e-04
6.534433041271582154e-04
5.967692277335893969e-04
6.181419922779795130e-04
8.740159384075956751e-04
8.612190176378689034e-04
7.882619264716668071e-04
6.772278320809405798e-04
6.901760704052745197e-04
7.927600774825099839e-04
8.023965837976877432e-04
8.339390259297387292e-04
7.970276972198949480e-04
6.392915710232315767e-04
6.069151018473099629e-04
8.226881675602254820e-04
7.904762554860594176e-04
6.925396330384029926e-04
7.968330873265940277e-04
6.647842957610623120e-04
7.743967225961004720e-04
7.960424132667068319e-04
8.591707200572487732e-04
6.716549055551175899e-04
5.738645088379061565e-04
8.341450466747142274e-04
7.174983985938213678e-04
6.365655363060779585e-04
7.577199520793269577e-04
5.957507465086358655e-04
8.589441174140845800e-04
7.721445939288813353e-04
7.025325009805075821e-04
9.154201950035486960e-04
7.077920515723342418e-04
6.963370422557772169e-04
6.991162973179174166e-04
8.668615997520410198e-04
6.626953848445423390e-04
8.066450367423419563e-04
8.094913656939446006e-04
7.475330099376300240e-04
7.076040105642988085e-04
6.764995435651593569e-04
7.056342354751639042e-04
6.280413420606604765e-04
9.141082954770384092e-04
7.045496610245010390e-04
7.425362384152950140e-04
7.605804092892198788e-04
7.677010593591032184e-04
7.548251829465761663e-04
6.429721025680663546e-04
6.450005171631384426e-04
7.029157164484901897e-04
6.581005432349943188e-04
6.648657691786963742e-04
7.105136023881087606e-04
6.061313000252781550e-04
7.002625543733973380e-04
7.273328578609682647e-04
6.940526891852044720e-04
8.354904876064845253e-04
7.364956531844199517e-04
7.305691470036236070e-04
6.493348119692474813e-04
7.077162317360394814e-04
6.276938289816189412e-04
7.073065094207538379e-04
6.973811746791402488e-04
7.638646007639999114e-04
8.138007779442199422e-04
6.899282653686895049e-04
7.441938479003757604e-04
8.630964067819900821e-04
6.026486280020529286e-04
7.159093807741963864e-04
8.076169389361954366e-04
7.351710078996331627e-04
7.303804684581569062e-04
7.078824894445065810e-04
7.017136305243910216e-04
7.606319460950035577e-04
6.810491558697088273e-04
7.629061356018525990e-04
7.517002761155990292e-04
6.985162841572814096e-04
6.753613097218224897e-04
7.417101283994416037e-04
6.296820670816764831e-04
7.488434320088790952e-04
8.294704858389906864e-04
6.753129462540742979e-04
7.438876695917820197e-04
7.481775164267996962e-04
6.596211583378047737e-04
7.345734257385035625e-04
6.884713901069488759e-04
7.845116608316653195e-04
7.071647668539118945e-04
7.226388220004631956e-04
7.477545127950519692e-04
7.523016239120999685e-04
7.240344992033177079e-04
7.179950902377879715e-04
7.315368677451726705e-04
6.702319331205276514e-04
6.662184458426993446e-04
7.225581619441197789e-04
7.878270492769483572e-04
7.038991254248186608e-04
6.743642173289785945e-04
6.910889459435262758e-04
6.977619722518379336e-04
7.026349909130010082e-04
6.037897339854003198e-04
7.292342747127150780e-04
6.971430352955386303e-04
7.342159538234007722e-04
7.322198497998857244e-04
6.638453032198737272e-04
6.460317772112679274e-04
7.599734414656842633e-04
7.186529121145375076e-04
7.715519712742090501e-04
7.923980810726252147e-04
7.040273762486576369e-04
7.288896802696596478e-04
6.426845359455752747e-04
7.145944830180168961e-04
6.832750947179329392e-04
7.316169223564978567e-04
7.534678630038869548e-04
7.344471236062667663e-04
7.331459383720655316e-04
6.719728161037970184e-04
7.434164105004116563e-04
6.925851655320441370e-04
7.129274939607824603e-04
7.685277067682795039e-04
6.589434843523370427e-04
6.831320071323167958e-04
7.480321620914161728e-04
7.463433518999245710e-04
7.166114580037134330e-04
7.123608171041306576e-04
7.440121038636521127e-04
6.835398180517265540e-04
6.963482001621553591e-04
7.640807558695465219e-04
6.553846036193067314e-04
6.785849522729362664e-04
6.793011773073110793e-04
6.730475071207709086e-04
7.713424329029931314e-04
6.650278550543243291e-04
6.777878141859217066e-04
7.025373541302026327e-04
6.555453498607896438e-04
6.991734088062650804e-04
7.144873342524692139e-04
7.219443501437531555e-04
7.111364762020839668e-04
7.335104659982827563e-04
6.504078789836706615e-04
7.028986780235217452e-04
7.371107411278118122e-04
7.362060772034364521e-04
7.365136512868205362e-04
6.812650485950777404e-04
6.816729569516008893e-04
7.175422642968337086e-04
6.985455062302488695e-04
6.403289458903604079e-04
7.614483978393167931e-04
7.235343953590078628e-04
6.877150373807443175e-04
7.498690708318571027e-04
6.890520716973206087e-04
6.343951720697704874e-04
6.961652056548529562e-04
6.995744140063319370e-04
7.181411767367124445e-04
6.878748004010429642e-04
7.396267362224012492e-04
6.789246457265629524e-04
7.175361689979113233e-04
7.267567849218037205e-04
7.312214868648814160e-04
6.953774137679080182e-04
7.257210251893662445e-04
7.321519863195727860e-04
7.081037401299209669e-04
7.246739725768585726e-04
6.733985557565088124e-04
6.610993459685129059e-04
6.565672419732588574e-04
7.285996524610181780e-04
6.781717929325696299e-04
7.059950119786450240e-04
6.897360117063385193e-04
7.017487011956750681e-04
7.663962063551586811e-04
6.641489731925975110e-04
7.352040512444454716e-04
6.834766360380412726e-04
7.074094431807012194e-04
6.926280620895887159e-04
6.934086304770292666e-04
6.967555966325085547e-04
7.311051030375373926e-04
6.905197942397734573e-04
7.063777877216636169e-04
7.414022255889260666e-04
7.229804013004420072e-04
6.849219142966296277e-04
6.556912018490081238e-04
6.895883939637191627e-04
6.758275183376131123e-04
7.070078095595519387e-04
7.103055537780038646e-04
6.788983952684174341e-04
7.086136272650626726e-04
6.912956672863306571e-04
7.132356349949347781e-04
6.749397739034682705e-04
6.806583175548170783e-04
7.056162652905458802e-04
7.336457262740336436e-04
7.175789897690883776e-04
6.923622219993633056e-04
6.923082035763394740e-04
6.996645116538177450e-04
7.049175232822205064e-04
7.023656017843097092e-04
6.765563475141469401e-04
7.209974061856700821e-04
7.303472381541560154e-04
7.035766760290181662e-04
6.937193587524346367e-04
7.050025639615583716e-04
6.859547225865206873e-04
7.195605071733696557e-04
6.926267790431924832e-04
6.795229981172868500e-04
6.406979330665683132e-04
7.150192506737893493e-04
7.121911328683749789e-04
6.822832344586929115e-04
7.207350505892578434e-04
7.334398187882922764e-04
6.865985501083514105e-04
7.007734433779045074e-04
7.184250911044488212e-04
7.162142849250885792e-04
7.106257929331571705e-04
7.301411997337084285e-04
6.939069208586713189e-04
6.944134813847441939e-04
6.967077748413107651e-04
7.259947750325600364e-04
6.873129646024746459e-04
6.921702340897271846e-04
7.272010997178361127e-04
6.795733123025936642e-04
6.863718379934277605e-04
6.866337232546666303e-04
6.839616094024112032e-04
6.776936455903741739e-04
6.944010043509739891e-04
6.724623010752482557e-04
7.026216705659997074e-04
6.918495042348754478e-04
6.512202513146356491e-04
7.222284686198807450e-04
7.013675022674268093e-04
6.942112239579262311e-04
6.992134078350288389e-04
6.769061639126211201e-04
6.736565665875371032e-04
7.088168956331176085e-04
6.819182619713911936e-04
6.785808834790181586e-04
6.751717378204402870e-04
6.574554032579124543e-04
6.631381895762079957e-04
6.963570627839522865e-04
6.882542627039562591e-04
7.099830539219079226e-04
6.890330571490092945e-04
6.985905153112572253e-04
6.868983296124598530e-04
7.074851137359192219e-04
6.571494793646446512e-04
7.045527397037613503e-04
6.795200360678367319e-04
6.926441779160507793e-04
6.716434060364658227e-04
7.109901513131915715e-04
6.775446681819654628e-04
6.874474234615751515e-04
6.899548834641722628e-04
6.694724274421033627e-04
7.054781991587199489e-04
6.753209401749538186e-04
6.700492171548550055e-04
6.775720520414576066e-04
6.716753981461205062e-04
7.051365505027011290e-04
6.567386591611211119e-04
6.798354615668411160e-04
6.777250969532183558e-04
7.034044492847153643e-04
6.907195679616127569e-04
6.897836903203256615e-04
6.749769778626258168e-04
6.621776045891773462e-04
6.819797146669343392e-04
6.936832171696985169e-04
7.047822992507104091e-04
7.037200939098399921e-04
7.021654905370454825e-04
6.889354376165077046e-04
6.750673461622879682e-04
6.976052380375689444e-04
7.060610559897704521e-04
6.912686173927801115e-04
6.741572352922509505e-04
7.047623721296275134e-04
6.752706562186244202e-04
6.712448337215358050e-04
6.897788448224699510e-04
6.578316202517715990e-04
6.930570897221590256e-04
6.791107266195190242e-04
6.812576167384644431e-04
6.828032731957824585e-04
6.851183046346757434e-04
6.822628775942299198e-04
7.014984035841689575e-04
6.812737370305463292e-04
6.528947827780511460e-04
6.990212212672556854e-04
7.092971167808294819e-04
6.575290933794814604e-04
6.890324946436109143e-04
6.846518254624056653e-04
6.741715031653604988e-04
6.946908180070275433e-04
6.841039416098917622e-04
6.836196395792103414e-04
6.924608683426358539e-04
6.697093770203686952e-04
6.716585173493131279e-04
6.785273217385806056e-04
6.847352017359650735e-04
6.814777439683384263e-04
6.887307385955213600e-04
6.889503178630692216e-04
6.791058134241570758e-04
6.798198333471371915e-04
6.690027415776374350e-04
6.804777697988268663e-04
6.952954278497714162e-04
6.754880666890023238e-04
6.717993105385809032e-04
6.599276733355077243e-04
6.745375863406532320e-04
6.738134390497566148e-04
6.766577143199606001e-04
6.757541835951876453e-04
6.671685342889605063e-04
6.857344824427901624e-04
6.757803862868413383e-04
6.591307623118158442e-04
6.778521449334052847e-04
6.713043170084222883e-04
6.638044469618191619e-04
6.802078148735382765e-04
6.765925221933054724e-04
6.814228598726402089e-04
6.834067970040279966e-04
6.709342290370950458e-04
6.787956025656189784e-04
6.885466083235083782e-04
6.900406779067820877e-04
6.725718547188757083e-04
6.817385768470326894e-04
6.705789567171187380e-04
6.726709499328524262e-04
6.627262165082210572e-04
6.821314634658333029e-04
6.837144796474073838e-04
6.852664128508994309e-04
6.858080723174010815e-04
6.667414317681630981e-04
6.803659963360944064e-04
6.742796398912658017e-04
6.778596737101928336e-04
6.562238261128827948e-04
6.892099160955829449e-04
6.719851220364843770e-04
6.623246846801665632e-04
6.805312187289003960e-04
6.717934753294679080e-04
6.781522760360106806e-04
6.744667538119496859e-04
6.717423597913479939e-04
6.741030235525612754e-04
6.577884905205093813e-04
6.717532757718494519e-04
6.626987243406675006e-04
6.651751536673047383e-04
6.619097217564448880e-04
6.687460179806956105e-04
6.754846395738320049e-04
6.731815434503797676e-04
6.900159965439272257e-04
6.651009853062986397e-04
6.723308913435467778e-04
6.773003154667760033e-04
6.754531004677962044e-04
6.754034976827931816e-04
6.793041374860498208e-04
6.686653346527851203e-04
6.731130308780517747e-04
6.814463960434526384e-04
6.795833662226493082e-04
6.868782575271667251e-04
6.691426031433587822e-04
6.657085454393420112e-04
6.658675210915509851e-04
6.798687896281912059e-04
6.624785081752886150e-04
6.639649101566821865e-04
6.747848638494175584e-04
6.732610257478209527e-04
6.680619002745553838e-04
6.631665353316624351e-04
6.713475736922995931e-04
6.600198485691716058e-04
6.793564550347684292e-04
6.698428580175569890e-04
6.662218517984982080e-04
6.752111078733805810e-04
6.750217091924128445e-04
6.674377410623033189e-04
6.633513867914549427e-04
6.729815458280176714e-04
6.620043483932956576e-04
6.642426104614286954e-04
6.612471065610493791e-04
6.633364956375802871e-04
6.659154600950986267e-04
6.786723276463200788e-04
6.633795247067710531e-04
6.728504883502852427e-04
6.665787836872009899e-04
6.661650828221145392e-04
6.671088977135939150e-04
6.598769798925103363e-04
6.672508653923834958e-04
6.691671337125782533e-04
6.670126512584027053e-04
6.599053162724911794e-04
6.758296134221984230e-04
6.646881564989285925e-04
6.674665847469472835e-04
6.763832548425188513e-04
6.612349947921014690e-04
6.681764383014158126e-04
6.536072427478323114e-04
6.563910793390394455e-04
6.618958036673605431e-04
6.639217649980712257e-04
6.666678439969938403e-04
6.682184910546391625e-04
6.561114932270856051e-04
6.655988174446949342e-04
6.636784964448213522e-04
6.577185239579568356e-04
6.629261462803056736e-04
6.600584994130250828e-04
6.599065563571970003e-04
6.605954502451151034e-04
6.674441206466366714e-04
6.603167002682979771e-04
6.676032115147987429e-04
6.589985388281197586e-04
6.657701076060529646e-04
6.622154640097089803e-04
6.601674054516206520e-04
6.592331039159579327e-04
6.608569832942341521e-04
6.601889337933569040e-04
6.567372311174008359e-04
6.664946793118182826e-04
6.598005525129110654e-04
6.609431483140907086e-04
6.610001143906444384e-04
6.609522309542977024e-04
6.550254453060285397e-04
6.590683834183484616e-04
6.508559773792799283e-04
6.599209693290877376e-04
6.644428787801833934e-04
6.583737175747003635e-04
6.591792609741395142e-04
6.653555396709605503e-04
6.585773230073203605e-04
6.633631339275727380e-04
6.614452230594461109e-04
6.606012137223360794e-04
6.603081307481366768e-04
6.571726273777312843e-04
6.579723789195210263e-04
6.611552210942599466e-04
6.533924674726778988e-04
6.622946169536524574e-04
6.597264792765389395e-04
6.652368792073917172e-04
6.586686328991650996e-04
6.624233018508679603e-04
6.558083192329443529e-04
6.598081069933963566e-04
6.583644862966152138e-04
6.595678399885793533e-04
6.571533251231938310e-04
6.608968460265318267e-04
6.610245091581708849e-04
6.553078884368769563e-04
6.578327039243971920e-04
6.568370011372057400e-04
6.539861273763241788e-04
6.593214440254249742e-04
6.552899655567062925e-04
6.512422377192440392e-04
6.556873661750585490e-04
6.519904232063498169e-04
6.517946536845750302e-04
6.547896321643139738e-04
6.525036724762146032e-04
6.573208121936801240e-04
6.545572014993827729e-04
6.553446411917039855e-04
6.548495982490414426e-04
6.511906702834099978e-04
6.562615503854441401e-04
6.509625477420491382e-04
6.571317919107033884e-04
6.588570380493677988e-04
6.580650023867853178e-04
6.521812673032873018e-04
6.555410307498358820e-04
6.548034479827150771e-04
6.544172716171554362e-04
6.546614744571271904e-04
6.526017863152194743e-04
6.542232940494006064e-04
6.565540644427064363e-04
6.525780303225288967e-04
6.477119660331947691e-04
6.518402013313854756e-04
6.559125501501970228e-04
6.543637461106090961e-04
6.542624192394776248e-04
6.551643389017647963e-04
6.552475492740741101e-04
6.512631372958028889e-04
6.519603214396809017e-04
6.512987095278123962e-04
6.514535745625392275e-04
6.549614150163008590e-04
6.479058724411495412e-04
6.512226257880004325e-04
6.535289161610394019e-04
6.523469826861888693e-04
6.535964819177509256e-04
6.457887503126565195e-04
6.517885680154533994e-04
6.558305883732238814e-04
6.460705385629107386e-04
6.496274878125480115e-04
6.512333211405449060e-04
6.503694322712109390e-04
6.475123136949743376e-04
6.479492177840575923e-04
6.512671664446447123e-04
6.501277792664957511e-04
6.511397226540001316e-04
6.493097447651052052e-04
6.502319200774980519e-04
6.457772165376064700e-04
6.497699951940556556e-04
6.492356756737410924e-04
6.472512088466087898e-04
6.469452318325586912e-04
6.499241259364621796e-04
6.484263087854876461e-04
6.501746847998740326e-04
6.454654039836749775e-04
6.485487460838658966e-04
6.468162144507156848e-04
6.476771641756511955e-04
6.470660806004729796e-04
6.481860903702268495e-04
6.473290503136133918e-04
6.490365591200718265e-04
6.489890280846165446e-04
6.478258516641612714e-04
6.476555775551663631e-04
6.498503618798726327e-04
6.476985235445809974e-04
6.489839969100546190e-04
6.463910684225630376e-04
6.457952264664943267e-04
6.443143597862971070e-04
6.498457075863560677e-04
6.450168442139498238e-04
6.452738226985350834e-04
6.456649625975689321e-04
6.463516984121558864e-04
6.468858315452394965e-04
6.466550026508165183e-04
6.469144108966144290e-04
6.422246915179894051e-04
6.487802665003918013e-04
6.464436528372184384e-04
6.426307591047027536e-04
6.418577284112577611e-04
6.433132004094785751e-04
6.421510226920921138e-04
6.466445334241829011e-04
6.478501450308722393e-04
6.491260928626354197e-04
6.445925633117019016e-04
6.442711046751489453e-04
6.444677356889250575e-04
6.432668292680136096e-04
6.442117151195027877e-04
6.422225827458163559e-04
6.455795757160997595e-04
6.431193031370555438e-04
6.453383596430130363e-04
6.441866985776600624e-04
6.429269222926734841e-04
6.441695275241477283e-04
6.440431326584148113e-04
6.423614789395136297e-04
6.440836176414474739e-04
6.441980399218438401e-04
6.426908639079853113e-04
6.432139705581828770e-04
6.434377789611843597e-04
6.413717110392687598e-04
6.449988871428438122e-04
6.399301320597155195e-04
6.392380552992824949e-04
6.407935692071391751e-04
6.429260050847038612e-04
6.432144533266680045e-04
6.408543846585870469e-04
6.423675598814164271e-04
6.440288172007740041e-04
6.396179340084054334e-04
6.422683550289232362e-04
6.417811438506344345e-04
6.425163290845178682e-04
6.436920053747957312e-04
6.401017041228703776e-04
6.408328085385585132e-04
6.396779970366129470e-04
6.409565292862105974e-04
6.415377633338681948e-04
6.425408180069254720e-04
6.400156673340895355e-04
6.410101016290440648e-04
6.427331505313540246e-04
6.406951429276390615e-04
6.404158293142251214e-04
6.380518854936193408e-04
6.402635764138229959e-04
6.400235898919149182e-04
6.394943218029932154e-04
6.385719062798814313e-04
6.391200368396669166e-04
6.387415906748954587e-04
6.392506304531831015e-04
6.377524712444159957e-04
6.383341025951958523e-04
6.402997823505546639e-04
6.386869745722719132e-04
6.385857369929117929e-04
6.397175996796510304e-04
6.380834487275920943e-04
6.370271475728434560e-04
6.374634279051773341e-04
6.371225612309681149e-04
6.383332111083351744e-04
6.376191970145639190e-04
6.395669471116851353e-04
6.387954722729654710e-04
6.376260266525808282e-04
6.381997774728609320e-04
6.369969920534137263e-04
6.373672175789575753e-04
6.370234469767514177e-04
6.370103079543738356e-04
6.378954390072531615e-04
6.362820401535118674e-04
6.366824595631717654e-04
6.358833292019810610e-04
6.375807420218437133e-04
6.350708734972979877e-04
6.340195246061115786e-04
6.373438731658979430e-04
6.354595094836484144e-04
6.381272832091440137e-04
6.365237104566705490e-04
6.366608220135999219e-04
6.359943293041584551e-04
6.345732285898678842e-04
6.365799269409122291e-04
6.348337752348626444e-04
6.350629370189404517e-04
6.357986358910794030e-04
6.353496052003038304e-04
6.340605499095231749e-04
6.353531781187262166e-04
6.351826874120001295e-04
6.356870077697119713e-04
6.354702121208056879e-04
6.349541728994484132e-04
6.333586956140387992e-04
6.350830779786689230e-04
6.352529537263821528e-04
6.355236400002000057e-04
6.333719971857043217e-04
6.352395967140887388e-04
6.346416631061252639e-04
6.334821089270551916e-04
6.335798751323348712e-04
6.333134852892283303e-04
6.339403086882153347e-04
6.333007868035053214e-04
6.329545731226908240e-04
6.330812467826396443e-04
6.336199494834078919e-04
6.337709566075074800e-04
6.337162562816749068e-04
6.326578985355091377e-04
6.350655998418952087e-04
6.305839838242930729e-04
6.324176800847997005e-04
6.334040227324172490e-04
6.327843224768694855e-04
6.317943670065539205e-04
6.309977455906766583e-04
6.330644579300384210e-04
6.322010055768479981e-04
6.324035806757362507e-04
6.332823672678434017e-04
6.331646806708349879e-04
6.321663481547744106e-04
6.306355476478566922e-04
6.316030543303527206e-04
6.311465983719634874e-04
6.315739811415955595e-04
6.311483499532211279e-04
6.301639158178985040e-04
6.312564442433431363e-04
6.306534875501079327e-04
6.310979639819139925e-04
6.311965274619799017e-04
6.309659749274759222e-04
6.296440962310889114e-04
6.296253324342009116e-04
6.311429998267240266e-04
6.295409442173951825e-04
6.301812763995412242e-04
6.299744542972330209e-04
6.297341278438452769e-04
6.303656366625571194e-04
6.301320202202161710e-04
6.289295056879423348e-04
6.296592202641180039e-04
6.294419870914846199e-04
6.293088113934219331e-04
6.290486310235079677e-04
6.296201006931650751e-04
6.288363827014074783e-04
6.302703246194165743e-04
6.287841797503777386e-04
6.279886871348031637e-04
6.287045813995040646e-04
6.286589095069626196e-04
6.284763985350237669e-04
6.272819836644382471e-04
6.283018176316254371e-04
6.279904141858910251e-04
6.278465687241614529e-04
6.277513680026667112e-04
6.271870710957834190e-04
6.279311665127373845e-04
6.277716372819094849e-04
6.269647428767666491e-04
6.271381097931629086e-04
6.275717414534405817e-04
6.273413169107985030e-04
6.277158173580483667e-04
6.269879157666572410e-04
6.276659342604354146e-04
6.266182455388448003e-04
6.277147813885134917e-04
6.265341997024725376e-04
6.267592985600272401e-04
6.271664622498744103e-04
6.264587374585756357e-04
6.261145723749993825e-04
6.262403733924518535e-04
6.261168925738672683e-04
6.267192631520692283e-04
6.258343154183283090e-04
6.257254616417006051e-04
6.257798349703745525e-04
6.259435635210073168e-04
6.258034170654350019e-04
6.256516424359786187e-04
6.262104012254116015e-04
6.257492365055938519e-04
6.256784571894595309e-04
6.249856769228617250e-04
6.256254114001439737e-04
6.247194801007456512e-04
6.253059469664855232e-04
6.251229664234021158e-04
6.251360056549796172e-04
6.253312179941454335e-04
6.246780252209419102e-04
6.244639227326534295e-04
6.251583011711804496e-04
6.239695824347992175e-04
6.245102027027654842e-04
6.247509294246616704e-04
6.243520058693129583e-04
6.240105268977430304e-04
6.242473155446597120e-04
6.235160392874906444e-04
6.243166558267552926e-04
6.233418598120398380e-04
6.231890144812290543e-04
6.234995253985960639e-04
6.233920902271888496e-04
6.232198655329489667e-04
6.230724309019934626e-04
6.232078798461570569e-04
6.228622828057086072e-04
6.228085361444756895e-04
6.227805519937755279e-04
6.223614765328470229e-04
6.222639040876838017e-04
6.228299872972615061e-04
6.227360123703751596e-04
6.221020103068184695e-04
6.226935048369089398e-04
6.227587280634627655e-04
6.219152910287885361e-04
6.219914230426139756e-04
6.214948232246388440e-04
6.218555124667431286e-04
6.220277057313974064e-04
6.218664145549964491e-04
6.216652615131863010e-04
6.212204716722907619e-04
6.213984626667212350e-04
6.218867799799774037e-04
6.211863640645028540e-04
6.210504408828198880e-04
6.209790627910968851e-04
6.210952621155159262e-04
6.211028432670869133e-04
6.209458474867688305e-04
6.209839418892215386e-04
6.202287921434939321e-04
6.205374806615050623e-04
6.202985602464598227e-04
6.201965846329153716e-04
6.204900511716470151e-04
6.201465263320551100e-04
6.201421140663921413e-04
6.205736982037308568e-04
6.200714457269780383e-04
6.198743058783953881e-04
6.199496310783023101e-04
6.199321622638499394e-04
6.198837883798431802e-04
6.194977660744173300e-04
6.195219773081960066e-04
6.192717828424558046e-04
6.194051134995966126e-04
6.193020986597235801e-04
6.192281528407013458e-04
6.190310334571226276e-04
6.186992678255470116e-04
6.186839555511594374e-04
6.188773739595740181e-04
6.186340086720370059e-04
6.186424819018122682e-04
6.184493215815675552e-04
6.185711512870596457e-04
6.181944023444051585e-04
6.180940788198201587e-04
6.186528288060544117e-04
6.179968615416176663e-04
6.181768913670154754e-04
6.180607147806051757e-04
6.178292320258189918e-04
6.179509866266474916e-04
6.177520374805265529e-04
6.174413680313459987e-04
6.179372267118592903e-04
6.172246561482791407e-04
6.172532861798965195e-04
6.175449833177593930e-04
6.176031091132250629e-04
6.170775390312370186e-04
6.170605503512103553e-04
6.173249125922657945e-04
6.169046423529631800e-04
6.169125002651721203e-04
6.168027444614882860e-04
6.170026885191701302e-04
6.166929496746683965e-04
6.168838705385035160e-04
6.163855155329844675e-04
6.165072471718328851e-04
6.162781278727086755e-04
6.160889924054861180e-04
6.160343568985651762e-04
6.163161883132154979e-04
6.162554128449744756e-04
6.158093370735349221e-04
6.157826803278382754e-04
6.158093311841584790e-04
6.154734368762080146e-04
6.156557998659818254e-04
6.155006062354068715e-04
6.152121802724556726e-04
6.152074091888803638e-04
6.152983700788387930e-04
6.149771015794919466e-04
6.152584707686349413e-04
6.150713272740313551e-04
6.149155962993908906e-04
6.147325878334452187e-04
6.148095151542085860e-04
6.148902900052264199e-04
6.143901100933125362e-04
6.144261294784465754e-04
6.145169495879414375e-04
6.144185757556122791e-04
6.142970764762265869e-04
6.141160679669281468e-04
6.142364939332840227e-04
6.144371108134984725e-04
6.138744239805455890e-04
6.139643137173412136e-04
6.137379912999468010e-04
6.134718780125848194e-04
6.138548209490055476e-04
6.135409956081361738e-04
6.136196005075450922e-04
6.135109851721696995e-04
6.131701935349306073e-04
6.133131358942585072e-04
6.130507472368518966e-04
6.133571254967168894e-04
6.129589036272289600e-04
6.128396993336025344e-04
6.129563065974413414e-04
6.129227017323738260e-04
6.129557836496446217e-04
6.125272156668051327e-04
6.126659712845383427e-04
6.124871856509489249e-04
6.123079770330115473e-04
6.121717964184482299e-04
6.123588866588493360e-04
6.119581507981708369e-04
6.119533373274630957e-04
6.120535355336797828e-04
6.118671287437920910e-04
6.117680266649805007e-04
6.117652341958006732e-04
6.117911552930688614e-04
6.116417439953742135e-04
6.115346369641622452e-04
6.114571573680405115e-04
6.114416706334217366e-04
6.114984069890241122e-04
6.113298916468189615e-04
6.110991144944291674e-04
6.110287028965731993e-04
6.108965330878892482e-04
6.107380932267616981e-04
6.107667338243566403e-04
6.106764008540880879e-04
6.106675800792226794e-04
6.107518747233994880e-04
6.106416723440446798e-04
6.104015712926184629e-04
6.104824540694403327e-04
6.102639372920488740e-04
6.103859706196116666e-04
6.101121093470414066e-04
6.100483909907575362e-04
6.098927326440769245e-04
6.101496580794790823e-04
6.099111226536051361e-04
6.095570803607274499e-04
6.097921907688524891e-04
6.095763302043112879e-04
6.095557719255661252e-04
6.094230609488783187e-04
6.095542827637910046e-04
6.094561708678298412e-04
6.092642873065331512e-04
6.091781133095712942e-04
6.093053366158797911e-04
6.090873298193260569e-04
6.090552639931445670e-04
6.090555828943112170e-04
6.087299761092484617e-04
6.089047577756044822e-04
6.088121640185431300e-04
6.086371483438296048e-04
6.085986951323022138e-04
6.084135716715931242e-04
6.083648000132096684e-04
6.085033262148068335e-04
6.083842945714799553e-04
6.083414293540076239e-04
6.081026134414591012e-04
6.080351539918429742e-04
6.081197327431045376e-04
6.078073525081351255e-04
6.077832342771883386e-04
6.077061023706383999e-04
6.077891233946716145e-04
6.076400117250143002e-04
6.075258511450229871e-04
6.075985512953797820e-04
6.074391680196200094e-04
6.073353763445546666e-04
6.073901214305038598e-04
6.072043132316632319e-04
6.071314179203438511e-04
6.069632410374264236e-04
6.070195231857228096e-04
6.069596033949751666e-04
6.067949314182427903e-04
6.068904444389398726e-04
6.067264556513625928e-04
6.066487978617279625e-04
6.065973147768949315e-04
6.065771638842738442e-04
6.064921855184168516e-04
6.063435387664091632e-04
6.062878197990903247e-04
6.062163975016430627e-04
6.061390522769493760e-04
6.060349349881261798e-04
6.059475993325823869e-04
6.059928658901667185e-04
6.058785736287748127e-04
6.058716582733116333e-04
6.057020185440648930e-04
6.056364371365729245e-04
6.057109213726776702e-04
6.054630167953129567e-04
6.054920546563209282e-04
6.053954676262775442e-04
6.052420787051805869e-04
6.052142820170633170e-04
6.051388400613188666e-04
6.052056075067124060e-04
6.050783623017465425e-04
6.049785884796669540e-04
6.048656303689730609e-04
6.048426616154668062e-04
6.047173837970956168e-04
6.046752252538623766e-04
6.046481578062285357e-04
6.045360170126081465e-04
6.044566769239323413e-04
6.044404363884746520e-04
6.043733959086914189e-04
6.041712794795302570e-04
6.042780705319126438e-04
6.040670493209577066e-04
6.040931428843072416e-04
6.040302343499960895e-04
6.039424334219921971e-04
6.038811644329905668e-04
6.037826579184696774e-04
6.037230947678047348e-04
6.037103819496690820e-04
6.036591025913122781e-04
6.035550380648946377e-04
6.034980498014583684e-04
6.034036884812816115e-04
6.032968967212958694e-04
6.031907077074448150e-04
6.031639722348989098e-04
6.031545048283135438e-04
6.030760794603190998e-04
6.030338382421382426e-04
6.029733720432329473e-04
6.028458958213197584e-04
6.027982914829956018e-04
6.028028302081378520e-04
6.026367083154566704e-04
6.025722501771509174e-04
6.025193369427619223e-04
6.024849101495364937e-04
6.023879421885216644e-04
6.023816034559386799e-04
6.022806200510774990e-04
6.022630947683754558e-04
6.021497154751102128e-04
6.021135947264660317e-04
6.020260666973259109e-04
6.019549724897045725e-04
6.019167986173123378e-04
6.018441782736044625e-04
6.017565239457427521e-04
6.017746738923125194e-04
6.016218016209918000e-04
6.015554791726111317e-04
6.015183227715187103e-04
6.014480280898078018e-04
6.013367004644496307e-04
6.013077288931159298e-04
6.012966006765129486e-04
6.011814464348464501e-04
6.012055309176908341e-04
6.010737879396751320e-04
6.010258877227128704e-04
6.008839637075133943e-04
6.008434195209960606e-04
6.008426683871006353e-04
6.007870828315878134e-04
6.006864126728586823e-04
6.006235038303392101e-04
6.005475997255902559e-04
6.004972495519947037e-04
6.004117481284305382e-04
6.003733898336402692e-04
6.003292856265321151e-04
6.002242472794629699e-04
6.001624457959591798e-04
6.000835987479828963e-04
6.001076620287982156e-04
5.999666478439778534e-04
5.999128065221739957e-04
5.998477140138935067e-04
5.997950867379323470e-04
5.997581679743708895e-04
5.996666197475374700e-04
5.996578017013781030e-04
5.995607356627960472e-04
5.994761012357073624e-04
5.994011269985396713e-04
5.993579185432396398e-04
5.992783861466535701e-04
5.992624811225262960e-04
5.991851139630186181e-04
5.991321998798890573e-04
5.990885805009607849e-04
5.990260360332228537e-04
5.989088788047305847e-04
5.988936309448690239e-04
5.988145745150670607e-04
5.987352322967924578e-04
5.986472196632557953e-04
5.986171656667389719e-04
5.985828696777204189e-04
5.984805362455546639e-04
5.984451900195272064e-04
5.983965957459688951e-04
5.983031898773679596e-04
5.982787385791081851e-04
5.982139199352937402e-04
5.981698418562491661e-04
5.980779238676414873e-04
5.980018446219835960e-04
5.979383148218341904e-04
5.979090609186807825e-04
5.978313655780685253e-04
5.977547146632291317e-04
5.977324827421161540e-04
5.976610519760383643e-04
5.975648795306971609e-04
5.975247117710685103e-04
5.974751959335221005e-04
5.974250177418895073e-04
5.973787546860623125e-04
5.972972742586898660e-04
5.972285242485679459e-04
5.971926188109774733e-04
5.971096544760898239e-04
5.970634404111084060e-04
5.969935071929588369e-04
5.969520566548220959e-04
5.969084529444697437e-04
5.968321743670841877e-04
5.967411374270967456e-04
5.967358045857198111e-04
5.966495950904083601e-04
5.965865458771340462e-04
5.965534343147690368e-04
5.964674769305206231e-04
5.964134628600870200e-04
5.963547756837455369e-04
5.963176128380135886e-04
5.962049746321099620e-04
5.961719337821059410e-04
5.961128848255735834e-04
5.960831055170492726e-04
5.960094274727321170e-04
5.959507488793785784e-04
5.958978237525888906e-04
5.958332986759500060e-04
5.957764672012427635e-04
5.957169389676615851e-04
5.956839259887892904e-04
5.956065850390653048e-04
5.955575917413810779e-04
5.954906601098668931e-04
5.954452349844068263e-04
5.954031031412093233e-04
5.953353711782178323e-04
5.952651918107257096e-04
5.952180660123136766e-04
5.951651117291971134e-04
5.950980051141988459e-04
5.950386102581620281e-04
5.949811418309672870e-04
5.948882158363934768e-04
5.948754594471952675e-04
5.948164212724177391e-04
5.947576684981927941e-04
5.947013015096707430e-04
5.946184412499995291e-04
5.945956698155828359e-04
5.945302434387817348e-04
5.944694306674342538e-04
5.944147057661498725e-04
5.943836689293607737e-04
5.943022980887060656e-04
5.942720518242297677e-04
5.941912226345065235e-04
5.941506324812712361e-04
5.940869443351947483e-04
5.940611535830977400e-04
5.939695424117817949e-04
5.939350770464963238e-04
5.938683936749438808e-04
5.938205582171154386e-04
5.937469146535323062e-04
5.937142669201485963e-04
5.936537761519184277e-04
5.936068975060497261e-04
5.935392594883877240e-04
5.934937732777319447e-04
5.934278451583054233e-04
5.933717713997031015e-04
5.933301196881509776e-04
5.932736082116342241e-04
5.932110420919103162e-04
5.931600246485004913e-04
5.931165095168341918e-04
5.930292072195392878e-04
5.929924493463005963e-04
5.929595799283891638e-04
5.928788585995507484e-04
5.928234396857938763e-04
5.927772570016676210e-04
5.927170026646598174e-04
5.926652824286404025e-04
5.926185619070730055e-04
5.925687609229619238e-04
5.925192125810484775e-04
5.924726014468683580e-04
5.924117401539142225e-04
5.923613929820418893e-04
5.922926594028370345e-04
5.922555621245894708e-04
5.922065075696105428e-04
5.921438702792529039e-04
5.921052357688586431e-04
5.920374194294211094e-04
5.919904771011504996e-04
5.919404096936563883e-04
5.918814330684395554e-04
5.918252165230025773e-04
5.917918045623486419e-04
5.917158736214897475e-04
5.916835687653834979e-04
5.916234792881637332e-04
5.915670223792725713e-04
5.915220271976313329e-04
5.914629950326260200e-04
5.914187090661121625e-04
5.913641546869869998e-04
5.913174230283643491e-04
5.912684274417777646e-04
5.912068652620297137e-04
5.911579675401353907e-04
5.911053810357954448e-04
5.910519717018982962e-04
5.910020164694777768e-04
5.909431024674776690e-04
5.908971659063370126e-04
5.908557943253852458e-04
5.907926143397882737e-04
5.907519774010515151e-04
5.907009506209086975e-04
5.906562989338154769e-04
5.905989426989681620e-04
5.905415079757425070e-04
5.904956152750910929e-04
5.904424128106401052e-04
5.903930777007862724e-04
5.903482739253421326e-04
5.903017417467574385e-04
5.902568285308005484e-04
5.902004676696714696e-04
5.901499801104175122e-04
5.900949606517619066e-04
5.900385219913213469e-04
5.900037780167611190e-04
5.899510453468233186e-04
5.898983273815748074e-04
5.898493123993167392e-04
5.897987553100743525e-04
5.897521442633339456e-04
5.896969736437832326e-04
5.896377570457107939e-04
5.896068995475511453e-04
5.895586673230764725e-04
5.895006095620967251e-04
5.894525706295158278e-04
5.894109377508466568e-04
5.893594060767984007e-04
5.893067140967338377e-04
5.892637287191348659e-04
5.892116780310542286e-04
5.891590105803801202e-04
5.891153753056166354e-04
5.890604807447562610e-04
5.890098967559701925e-04
5.889737905181978992e-04
5.889160138002367617e-04
5.888680035528092924e-04
5.888270216442604860e-04
5.887832128196212505e-04
5.887275860697391153e-04
5.886776158169702410e-04
5.886283261160038874e-04
5.885887931901401119e-04
5.885429822987755816e-04
5.884920673865545911e-04
5.884529424948776576e-04
5.883960677706386380e-04
5.883434420889364913e-04
5.883036487103394420e-04
5.882560681229533506e-04
5.882068600225116200e-04
5.881579956488947785e-04
5.881103083352195310e-04
5.880657796051615973e-04
5.880194235260074054e-04
5.879748885166865549e-04
5.879265403173593307e-04
5.878746123919808240e-04
5.878285912220802822e-04
5.877846582585990456e-04
5.877388164407640380e-04
5.876972855669785733e-04
5.876494484211670444e-04
5.875976870403903235e-04
5.875506203806504400e-04
5.875071849512406540e-04
5.874626977513107981e-04
5.874202481537305932e-04
5.873742897679475831e-04
5.873232684110486507e-04
5.872778246369880165e-04
5.872290162520502543e-04
5.871908755426141248e-04
5.871437964804056492e-04
5.870961510803890350e-04
5.870528609582171707e-04
5.870063648742708225e-04
5.869603384788744634e-04
5.869189863695379889e-04
5.868701337709773379e-04
5.868266429827855403e-04
5.867856205321272424e-04
5.867394476045551671e-04
5.866881700961923711e-04
5.866468083861465631e-04
5.866011857602054661e-04
5.865574717605976296e-04
5.865135597429189940e-04
5.864607553480422715e-04
5.864216837289756195e-04
5.863769527868732678e-04
5.863366301174530257e-04
5.862909755585670336e-04
5.862483866286377849e-04
5.862022123227586274e-04
5.861560313771286548e-04
5.861115478496437426e-04
5.860679456559783401e-04
5.860255061080934776e-04
5.859812590155845467e-04
5.859419641634492542e-04
5.858943722749513153e-04
5.858508378600572235e-04
5.858089628970476314e-04
5.857652461771612569e-04
5.857213391069037833e-04
5.856794164304367657e-04
5.856343646018123076e-04
5.855893477473165859e-04
5.855481188106896650e-04
5.855087050391293924e-04
5.854629361114979148e-04
5.854197347275753296e-04
5.853778149552131115e-04
5.853345021346646488e-04
5.852911305888340620e-04
5.852505743846069843e-04
5.852061913707344793e-04
5.851626541616623042e-04
5.851211655984681764e-04
5.850796375960869980e-04
5.850356011551167057e-04
5.849935780658562651e-04
5.849534211131283447e-04
5.849103796714070613e-04
5.848702848442054354e-04
5.848265884508751459e-04
5.847827907717954290e-04
5.847416781721185642e-04
5.847005115909508725e-04
5.846596481307598505e-04
5.846182611797701590e-04
5.845757193798084821e-04
5.845344508021756971e-04
5.844937571548961290e-04
5.844511908560108375e-04
5.844123240610794856e-04
5.843696983180752961e-04
5.843297506506880609e-04
5.842864769120562291e-04
5.842485519839383688e-04
5.842059353891567233e-04
5.841636168872468620e-04
5.841218415324514164e-04
5.840835818328936032e-04
5.840431929755162278e-04
5.840016453251027162e-04
5.839625052388911332e-04
5.839204259296561618e-04
5.838806405542545496e-04
5.838407674131309471e-04
5.838003446729093417e-04
5.837605040758449835e-04
5.837195188525163029e-04
5.836791647637470590e-04
5.836399657041920147e-04
5.836001478680615277e-04
5.835588067518038963e-04
5.835197492126148076e-04
5.834813819034966259e-04
5.834416225142842341e-04
5.834012155202823865e-04
5.833628315899402764e-04
5.833227798553663156e-04
5.832836004141081672e-04
5.832450261692925667e-04
5.832053002577973011e-04
5.831650908848418254e-04
5.831267619950849775e-04
5.830872170573775338e-04
5.830493442880747010e-04
5.830094051819701166e-04
5.829698895056435346e-04
5.829311606856371793e-04
5.828927902509985388e-04
5.828545180384611408e-04
5.828151042203259281e-04
5.827774074764028060e-04
5.827400495536199905e-04
5.827008302432074233e-04
5.826624355542171091e-04
5.826234595141475394e-04
5.825852143682260171e-04
5.825474447308323384e-04
5.825101929363400320e-04
5.824713263518833299e-04
5.824345177141435287e-04
5.823968267129369302e-04
5.823587579913226458e-04
5.823205766824224045e-04
5.822835532839689418e-04
5.822453120638325721e-04
5.822080521765785619e-04
5.821708093322720086e-04
5.821329928152728806e-04
5.820963715025497974e-04
5.820591088014766224e-04
5.820210314745866663e-04
5.819847952596035210e-04
5.819470819305662575e-04
5.819107536875606484e-04
5.818732583745460461e-04
5.818357371316942818e-04
5.817989736749803933e-04
5.817626511313959709e-04
5.817271166898272707e-04
5.816884233237674430e-04
5.816525046365046692e-04
5.816159176289626776e-04
5.815805955160393117e-04
5.815444424127942527e-04
5.815079057301926566e-04
5.814717110181077432e-04
5.814350699135726989e-04
5.813993303348106339e-04
5.813638071019040787e-04
5.813263045823855281e-04
5.812910447970618408e-04
5.812554971877581175e-04
5.812198492702565569e-04
5.811838948181950000e-04
5.811481509113863332e-04
5.811136102224753784e-04
5.810773241748325331e-04
5.810426519516165376e-04
5.810068955904751668e-04
5.809714015860025210e-04
5.809360640661151475e-04
5.809012358808736311e-04
5.808660013110569266e-04
5.808310952546523334e-04
5.807960977441918235e-04
5.807610173714268390e-04
5.807261983257955068e-04
5.806921926231855798e-04
5.806566599525554186e-04
5.806222464032806310e-04
5.805882268927819523e-04
5.805526960610836841e-04
5.805194174559124383e-04
5.804840334447081921e-04
5.804500332850685363e-04
5.804160604024172741e-04
5.803814810469777900e-04
5.803472434952627358e-04
5.803133236149119389e-04
5.802792326098459410e-04
5.802455038476164728e-04
5.802115983464590414e-04
5.801777243989024880e-04
5.801445184404166759e-04
5.801106549719331354e-04
5.800769789222375494e-04
5.800438821103746836e-04
5.800098307602496919e-04
5.799769843658913755e-04
5.799433010954533393e-04
5.799103058522769860e-04
5.798771700839667857e-04
5.798439790275068759e-04
5.798108586310985607e-04
5.797777647073637996e-04
5.797446231120403567e-04
5.797119231477035773e-04
5.796789595276052951e-04
5.796465311224503411e-04
5.796142653095463565e-04
5.795810771242059130e-04
5.795486865320969476e-04
5.795159059237211955e-04
5.794839171636973060e-04
5.794509490231055607e-04
5.794190428799061857e-04
5.793867457325118601e-04
5.793547412934053724e-04
5.793222507223148247e-04
5.792904855501713503e-04
5.792582900163486398e-04
5.792266366931826194e-04
5.791944852749451172e-04
5.791629418020899107e-04
5.791312004136128788e-04
5.790995447075211874e-04
5.790683158305342170e-04
5.790365938352586396e-04
5.790051286490176035e-04
5.789736090727095729e-04
5.789423888837174790e-04
5.789113251421121147e-04
5.788799374618236893e-04
5.788489790862638576e-04
5.788176776436513953e-04
5.787868003765676188e-04
5.787555825286081661e-04
5.787250303702892772e-04
5.786942392139556501e-04
5.786632791378472623e-04
5.786327757910639160e-04
5.786021232816085554e-04
5.785715574033511782e-04
5.785409640982578251e-04
5.785104380417665582e-04
5.784802530325126174e-04
5.784497976781700218e-04
5.784196816577889637e-04
5.783896127577107908e-04
5.783593562411313985e-04
5.783293986735553623e-04
5.782994250034108287e-04
5.782694403854615663e-04
5.782394555640298908e-04
5.782097092945460504e-04
5.781801726642663182e-04
5.781503381069796280e-04
5.781209678545008637e-04
5.780915154599716678e-04
5.780619143910418816e-04
5.780324999518360318e-04
5.780030207122382416e-04
5.779738961623622721e-04
5.779448246410242435e-04
5.779155162739256545e-04
5.778863872987220675e-04
5.778572769320149518e-04
5.778283405131038903e-04
5.777995473223245491e-04
5.777706868804248453e-04
5.777420275343320318e-04
5.777131455566226256e-04
5.776846038713589170e-04
5.776559909399766116e-04
5.776274678923780988e-04
5.775990164021235123e-04
5.775705689061473580e-04
5.775423542133741343e-04
5.775140439710097764e-04
5.774858216975639180e-04
5.774577128430565800e-04
5.774296835244993337e-04
5.774016309090780836e-04
5.773738678895821985e-04
5.773457751414145384e-04
5.773180397677026444e-04
5.772903170918741852e-04
5.772626854230202519e-04
5.772350094320734476e-04
5.772074575090278869e-04
5.771799822032078024e-04
5.771525707809863244e-04
5.771252283494780538e-04
5.770978862358913620e-04
5.770706340922868724e-04
5.770434330785099682e-04
5.770163146949106123e-04
5.769892287423337507e-04
5.769622930356864106e-04
5.769353147068863015e-04
5.769084324932082387e-04
5.768817248935194592e-04
5.768549116350555478e-04
5.768282084773128197e-04
5.768015901893928498e-04
5.767750954354660276e-04
5.767485731971044470e-04
5.767221614634820146e-04
5.766957470095792010e-04
5.766695195072901910e-04
5.766432576009005188e-04
5.766171817279509100e-04
5.765910143867636947e-04
5.765649887625627157e-04
5.765390067457199126e-04
5.765130905792933752e-04
5.764871755994908789e-04
5.764613911523076015e-04
5.764357379264573858e-04
5.764100517029595869e-04
5.763844007915456657e-04
5.763589274871001563e-04
5.763334622521053534e-04
5.763080393884385680e-04
5.762826725449581022e-04
5.762573700287147499e-04
5.762321437081630807e-04
5.762070235312794853e-04
5.761818242613764296e-04
5.761568392009351744e-04
5.761318606266042875e-04
5.761069659725930958e-04
5.760821206976455677e-04
5.760573221996873310e-04
5.760325800841927879e-04
5.760078992280578090e-04
5.759833491612611741e-04
5.759588013482566356e-04
5.759342869160526080e-04
5.759099134127066821e-04
5.758855694497793699e-04
5.758613191825786909e-04
5.758370311298915750e-04
5.758128713943166032e-04
5.757887627230414470e-04
5.757647478726642815e-04
5.757407774102179469e-04
5.757168622332246941e-04
5.756930101909511158e-04
5.756692352005249704e-04
5.756455208096569656e-04
5.756218470854393464e-04
5.755982457211600810e-04
5.755747048949536341e-04
5.755512409113997625e-04
5.755278495582894340e-04
5.755044992601048405e-04
5.754811898218470173e-04
5.754579814287783370e-04
5.754348138270140188e-04
5.754117263488774852e-04
5.753887013822742277e-04
5.753657114353330536e-04
5.753428191412996665e-04
5.753199276239870895e-04
5.752971557762455316e-04
5.752744209451484975e-04
5.752517701039099344e-04
5.752291764168839406e-04
5.752066319763351771e-04
5.751841503797096213e-04
5.751617339425722222e-04
5.751394051338822901e-04
5.751170906019998502e-04
5.750948779793645105e-04
5.750727140072890969e-04
5.750505799832301892e-04
5.750285770428026442e-04
5.750065785434627878e-04
5.749846656998411267e-04
5.749628294062120474e-04
5.749410347437887208e-04
5.749193051445138395e-04
5.748976197641453810e-04
5.748760263273540233e-04
5.748544805777831574e-04
5.748330088148434578e-04
5.748115793476485727e-04
5.747902347672008416e-04
5.747689356233178859e-04
5.747476883361452623e-04
5.747265289090688987e-04
5.747054063012936153e-04
5.746843658468879425e-04
5.746633805435854636e-04
5.746424420433394239e-04
5.746215934397595586e-04
5.746007995489941589e-04
5.745800580884919068e-04
5.745593855546594735e-04
5.745387768129292831e-04
5.745182099054226780e-04
5.744977225019055108e-04
5.744772971507893216e-04
5.744569273310972096e-04
5.744366245322686743e-04
5.744163818018096883e-04
5.743962037563466686e-04
5.743760820031729468e-04
5.743560308082067221e-04
5.743360305972847408e-04
5.743160957732226400e-04
5.742962226573204969e-04
5.742764119653479861e-04
5.742566682797866371e-04
5.742369781580314563e-04
5.742173500813213755e-04
5.741977859253574864e-04
5.741782851427167881e-04
5.741588407942326997e-04
5.741394676339033748e-04
5.741201514964844235e-04
5.741008939286023878e-04
5.740816994767159636e-04
5.740625696028953074e-04
5.740434982098723297e-04
5.740244892540430051e-04
5.740055400519857064e-04
5.739866562648659803e-04
5.739678321757347773e-04
5.739490696096170375e-04
5.739303691532439454e-04
5.739117325707182539e-04
5.738931503485106755e-04
5.738746367368757241e-04
5.738561824082910297e-04
5.738377871028759337e-04
5.738194561493160624e-04
5.738011844477650895e-04
5.737829756562964250e-04
5.737648289324209045e-04
5.737467424645155195e-04
5.737287213537327346e-04
5.737107574158680423e-04
5.736928577971596877e-04
5.736750139116592040e-04
5.736572380315919277e-04
5.736395205550235939e-04
5.736218643028220907e-04
5.736042716601795054e-04
5.735867365348925988e-04
5.735692649896343039e-04
5.735518520017998927e-04
5.735345057428704353e-04
5.735172158764382036e-04
5.734999882630204557e-04
5.734828243832215677e-04
5.734657209852019868e-04
5.734486815469306024e-04
5.734316970099395715e-04
5.734147766731341814e-04
5.733979199388339982e-04
5.733811202885260791e-04
5.733643857202302052e-04
5.733477118327517984e-04
5.733310965517606763e-04
5.733145451254083617e-04
5.732980541579565199e-04
5.732816253146760452e-04
5.732652566294115090e-04
5.732489485291578308e-04
5.732327014322422757e-04
5.732165160135747331e-04
5.732003926312475564e-04
5.731843287249502750e-04
5.731683288031706562e-04
5.731523871755686821e-04
5.731365063353935580e-04
5.731206895751194330e-04
5.731049312687451231e-04
5.730892354975144348e-04
5.730735997280478290e-04
5.730580254911963808e-04
5.730425132947528999e-04
5.730270611468569336e-04
5.730116697912130590e-04
5.729963412706286056e-04
5.729810718897832651e-04
5.729658646839778892e-04
5.729507180453192973e-04
5.729356318061940619e-04
5.729206075825616111e-04
5.729056437859629796e-04
5.728907409181766908e-04
5.728758996487255586e-04
5.728611189536121813e-04
5.728463992708659460e-04
5.728317406477720537e-04
5.728171427450436375e-04
5.728026060874711950e-04
5.727881306112717627e-04
5.727737148632423315e-04
5.727593611239464432e-04
5.727450682077061313e-04
5.727308360006683500e-04
5.727166647764855107e-04
5.727025538554245425e-04
5.726885050245783797e-04
5.726745163503161413e-04
5.726605880880126500e-04
5.726467214860639322e-04
5.726329155691826456e-04
5.726191706789941728e-04
5.726054860711389700e-04
5.725918624829401090e-04
5.725782998759403964e-04
5.725647983295446310e-04
5.725513570767903643e-04
5.725379765522605217e-04
5.725246570292195870e-04
5.725113988382656309e-04
5.724982007429061910e-04
5.724850637290870761e-04
5.724719872978661439e-04
5.724589720859131481e-04
5.724460169477216557e-04
5.724331229885944736e-04
5.724202896388863593e-04
5.724075170187803646e-04
5.723948050947692216e-04
5.723821540990339579e-04
5.723695635907429576e-04
5.723570339711576017e-04
5.723445649718038450e-04
5.723321565691928811e-04
5.723198089981609490e-04
5.723075220191502178e-04
5.722952957924630144e-04
5.722831301704236302e-04
5.722710252110890317e-04
5.722589808972845891e-04
5.722469971914119057e-04
5.722350742293378853e-04
5.722232119086845693e-04
5.722114101402030369e-04
5.721996689940331456e-04
5.721879885213673441e-04
5.721763686883407944e-04
5.721648093775103319e-04
5.721533107694660916e-04
5.721418726504682402e-04
5.721304951449087024e-04
5.721191781474686214e-04
5.721079217616896299e-04
5.720967260532899921e-04
5.720855907674149768e-04
5.720745161160554907e-04
5.720635020075081961e-04
5.720525483796608853e-04
5.720416553842784437e-04
5.720308229498045037e-04
5.720200509067464986e-04
5.720093393939039905e-04
5.719986884605001917e-04
5.719880979842277731e-04
5.719775681150179088e-04
5.719670986395091524e-04
5.719566896513682231e-04
5.719463412307869421e-04
5.719360531981421743e-04
5.719258256789510296e-04
5.719156586545692421e-04
5.719055520729895850e-04
5.718955059474631775e-04
5.718855202912297543e-04
5.718755950690024379e-04
5.718657302791371440e-04
5.718559259550529952e-04
5.718461820362324283e-04
5.718364985431805252e-04
5.718268754959832155e-04
5.718173128344394146e-04
5.718078105987500380e-04
5.717983687629878001e-04
5.717889873340359754e-04
