4.510629218184001327e-14
9.154990660349540765e-13
9.084495132922279026e-12
5.892660046271884947e-11
2.820419631196816270e-10
1.067509504646371742e-09
3.351425801490102782e-09
9.067708583313208035e-09
2.187062570376269495e-08
4.846186013349002591e-08
1.010402766855396891e-07
2.011201648877864317e-07
3.840742194558800960e-07
7.028700668045577600e-07
1.229564413191651607e-06
2.054332596748080487e-06
3.283025519953942145e-06
5.034316834441951399e-06
7.436631641193698632e-06
1.062443641818589837e-05
1.473378499273841034e-05
1.989772407601076131e-05
2.624238358324187104e-05
3.388412612763245678e-05
4.292756777549754728e-05
5.346418162816575623e-05
6.557151383992132249e-05
7.931321932581535345e-05
9.473980540138356794e-05
1.118894926229459745e-04
1.307885780579193843e-04
1.514512011818911982e-04
1.738789249086173912e-04
1.980606128879892317e-04
2.239728673261314233e-04
2.515811609873610990e-04
2.808417183528525611e-04
3.117038417362913796e-04
3.441118000407893942e-04
3.780052428396238947e-04
4.133178198328792781e-04
4.499747818577157351e-04
4.878907871779189238e-04
5.269685419895507334e-04
5.670979331602322678e-04
6.081548608497832405e-04
6.499992415594575039e-04
6.924721876471680608e-04
7.353927815525081180e-04
7.785550545598755000e-04
8.217257012265541827e-04
8.646426498496186629e-04
9.070140646978016273e-04
9.485171396223277636e-04
9.887963951417740212e-04
1.027461790957645430e-03
1.064087286257684025e-03
1.098210393283085423e-03
1.129333082274779814e-03
1.156924350337628846e-03
1.180424771843852083e-03
1.199253223430693602e-03
1.212815730923024696e-03
1.220516176478730766e-03
1.221768542615196728e-03
1.216010382813767672e-03
1.202717068324754340e-03
1.181415958505033703e-03
1.151699273189521087e-03
1.113234604956386689e-03
1.065772762077249166e-03
1.009153401886149406e-03
9.433090884107498894e-04
8.682680141450014157e-04
7.841551911141389757e-04
6.911917989988565145e-04
5.896925015038394918e-04
4.800607414814401391e-04
3.627823132803754068e-04
2.384178641432992260e-04
1.075951429881235276e-04
-2.899838422744495118e-05
-1.706222477874574028e-04
-3.164887351211512038e-04
-4.657672204897349375e-04
-6.175867409054247321e-04
-7.710373220158369800e-04
-9.251715336770809572e-04
-1.079007988348524216e-03
-1.231537724978495202e-03
-1.381733318797851622e-03
-1.528559953281389020e-03
-1.670987677757150396e-03
-1.808004084385248129e-03
-1.938626342405428164e-03
-2.061911348863556571e-03
-2.176963267362027558e-03
-2.282938743382460604e-03
-2.379050772051684911e-03
-2.464572125195826739e-03
-2.538838876367406888e-03
-2.601254433569443261e-03
-2.651294418905764897e-03
-2.688512279443736053e-03
-2.712544881121432220e-03
-2.723117226989364963e-03
-2.720046041779500701e-03
-2.703242639903243906e-03
-2.672715578276468797e-03
-2.628573157614181623e-03
-2.571025479075158670e-03
-2.500385850969115854e-03
-2.417071592770411118e-03
-2.321604155701562436e-03
-2.214607898830657420e-03
-2.096806459058403807e-03
-1.969016070650838994e-03
-1.832136195187863319e-03
-1.687138478580289466e-03
-1.535054846903938577e-03
-1.376965002503392852e-03
-1.213983464562293007e-03
-1.047246655101429207e-03
-8.779007865731988615e-04
-7.070911146916853719e-04
-5.359526673545950007e-04
-3.656021709257055831e-04
-1.971307153980010433e-04
-3.159675009084518348e-05
1.299807685406282991e-04
2.866290044013614872e-04
4.374274745490943001e-04
5.815137713139512674e-04
7.180886806092486203e-04
8.464204769918426885e-04
9.658480575210695585e-04
1.075782774096996960e-03
1.175709374985823468e-03
1.265186884452564314e-03
1.343849929728433389e-03
1.411410039775788878e-03
1.467655723948361329e-03
1.512450568530460159e-03
1.545729903855550978e-03
1.567497499818026755e-03
1.577823254817793284e-03
1.576841373706608243e-03
1.564747495026038620e-03
1.541793548157586883e-03
1.508280373768942310e-03
1.464549181745299902e-03
1.410973079000390909e-03
1.347949406531911195e-03
1.275893107341488078e-03
1.195231182339521244e-03
1.106398396386348414e-03
1.009834433044683047e-03
9.059824792157642392e-04
7.952889679642224539e-04
6.782042793122845239e-04
5.551845506045937273e-04
4.266948675162653983e-04
2.932136430630574069e-04
1.552372822173283011e-04
1.328398273287718799e-05
-1.321039669699746648e-04
-2.803591778492072481e-04
-4.308886677085894132e-04
-5.830731388426385912e-04
-7.362657226525116689e-04
-8.897904479590103841e-04
-1.042941093309758061e-03
-1.194981122237539876e-03
-1.345145055767666808e-03
-1.492641198426630008e-03
-1.636655499978876323e-03
-1.776356600560056748e-03
-1.910902426480830165e-03
-2.039448624840039213e-03
-2.161158566441803448e-03
-2.275214033925066544e-03
-2.380825585201284175e-03
-2.477242037508382844e-03
-2.563759102237261715e-03
-2.639727421747669472e-03
-2.704560113002163133e-03
-2.757739804431317502e-03
-2.798825288609574618e-03
-2.827458072910200588e-03
-2.843368961512292292e-03
-2.846384396330396867e-03
-2.836431984496298655e-03
-2.813544629997785998e-03
-2.777862798356236455e-03
-2.729634512791180925e-03
-2.669212863205005538e-03
-2.597051366670883286e-03
-2.513698315932386997e-03
-2.419791596065753742e-03
-2.316054636986671859e-03
-2.203292405204014363e-03
-2.082384955969646817e-03
-1.954276445247086179e-03
-1.819959617408385818e-03
-1.680458081280858254e-03
-1.536809497913200779e-03
-1.390051782849045358e-03
-1.241212576901873929e-03
-1.091300817165203035e-03
-9.412988157095393289e-04
-7.921537006637050914e-04
-6.447680688188006919e-04
-4.999908669700395573e-04
-3.586101829749498452e-04
-2.213490422944852946e-04
-8.886363197124144415e-05
3.825796048440642896e-05
1.594980227331668809e-04
2.744122847298109918e-04
3.826322538139182794e-04
4.838656561926549444e-04
5.778951512919610917e-04
6.645762335036496313e-04
7.438348704164349668e-04
8.156647518280068761e-04
8.801239110081353735e-04
9.373308651896533183e-04
9.874606587473582116e-04
1.030740957797561357e-03
1.067447913877561747e-03
1.097901323334128003e-03
1.122458829718668777e-03
1.141509398161072008e-03
1.155466697900929931e-03
1.164763046471770959e-03
1.169844161090067246e-03
1.171164461108192357e-03
1.169182461567915563e-03
1.164355927507459455e-03
1.157136610330843605e-03
1.147964350855632974e-03
1.137260287649559734e-03
1.125419158404530494e-03
1.112801230822014998e-03
1.099724963763981005e-03
1.086461832686730486e-03
1.073234700306171727e-03
1.060220441279746857e-03
1.047556166053347339e-03
1.035346960130513428e-03
1.023672701643927848e-03
1.012592721849704669e-03
1.002148850623826382e-03
9.923681783683773426e-04
9.832662310861723341e-04
9.748502993679626898e-04
9.671225859515443935e-04
9.600835566824868130e-04
9.537364190527235696e-04
9.480934645035468504e-04
9.431843192952435798e-04
9.390652677725135761e-04
9.358279289061155167e-04
9.336051822945660560e-04
9.325729637548299577e-04
9.329481599993130194e-04
9.349841614127990660e-04
9.389657831070684964e-04
9.452044969810973873e-04
9.540340902376004666e-04
9.658064653270438671e-04
9.808873237739145282e-04
9.996518142997654760e-04
1.022480623649660433e-03
1.049756945652395362e-03
1.081863972730830962e-03
1.119181503290239037e-03
1.162079992372196027e-03
1.210911395918878907e-03
1.265997732242807447e-03
1.327619098231098320e-03
1.396002444439577725e-03
1.471311519456773272e-03
1.553638045196689904e-03
1.642994410069840549e-03
1.739308216869705310e-03
1.842418578816988877e-03
1.952073741700530770e-03
2.067930107013281858e-03
2.189553721153543030e-03
2.316425633028160267e-03
2.447951532419845918e-03
2.583474465982497047e-03
2.722288638385204299e-03
2.863652996249371578e-03
3.006804609815899240e-03
3.150972448757527813e-03
3.295391623646146823e-03
3.439317357947805839e-03
3.582037711416363908e-03
3.722884340669393825e-03
3.861240771826726821e-03
3.996547554037021589e-03
4.128303663953856138e-03
4.256064157432437253e-03
4.379435324138343869e-03
4.498069790359304418e-03
4.611664141999431872e-03
4.719960269075727452e-03
4.822749454199600112e-03
4.919876638415353678e-03
5.011242267710678232e-03
5.096800441382622580e-03
5.176553683240244300e-03
5.250545574989783776e-03
5.318852517147468727e-03
5.381575432434786317e-03
5.438831755932910759e-03
5.490747708061911869e-03
5.537450627125618981e-03
5.579061178209460820e-03
5.615685668630581058e-03
5.647409305110074294e-03
5.674291649481674749e-03
5.696365538696667244e-03
5.713640333447687729e-03
5.726109663410014483e-03
5.733763054892405953e-03
5.736600211973707369e-03
5.734646367585811109e-03
5.727966960927553808e-03
5.716680017055404857e-03
5.700965248358567765e-03
5.681069962676589882e-03
5.657312669938747984e-03
5.630085194029575343e-03
5.599853283827269101e-03
5.567155010416358595e-03
5.532596268708957730e-03
5.496843339383616217e-03
5.460613085910053822e-03
5.424661498435147215e-03
5.389771047837520201e-03
5.356737191060312840e-03
5.326354693721201301e-03
5.299404843946880876e-03
5.276644443322633417e-03
5.258796644196930652e-03
5.246543054416589504e-03
5.240516637928110261e-03
5.241295377280000625e-03
5.249396640675571546e-03
5.265271690621188029e-03
5.289299535385083399e-03
5.321779868687747175e-03
5.362925845400811145e-03
5.412858186102553933e-03
5.471602149566886543e-03
5.539088216361423740e-03
5.615156079121477219e-03
5.699560223284374713e-03
5.791974824660450251e-03
5.891996494067634066e-03
5.999145202452178284e-03
6.112865251129812570e-03
6.232528291995997893e-03
6.357439166474378005e-03
6.486843772101789571e-03
6.619937418171152436e-03
6.755872552311780951e-03
6.893765745259830893e-03
7.032704434619541610e-03
7.171753626634753097e-03
7.309961947258973754e-03
7.446366045918800282e-03
7.579992854119358379e-03
7.709860136892949037e-03
7.834976364714555871e-03
7.954340895597702618e-03
8.066945064763299603e-03
8.171774297763322384e-03
8.267810875228024173e-03
8.354036747561495793e-03
8.429436251953874651e-03
8.492999649074663149e-03
8.543729245635100708e-03
8.580649675289001022e-03
8.602822665237506994e-03
8.609365020875073271e-03
8.599467410725151334e-03
8.572411390381675170e-03
8.527583128741864429e-03
8.464483950547569552e-03
8.382738973224777498e-03
8.282105077460128265e-03
8.162478657153150394e-03
8.023903042269048269e-03
7.866575458280795907e-03
7.690853274150243404e-03
7.497258663458623677e-03
7.286480072952193458e-03
7.059368780669832491e-03
6.816929542168535978e-03
6.560305474514587128e-03
6.290758357362799535e-03
6.009646054816093937e-03
5.718398662608870954e-03
5.418494429400923934e-03
5.111435895460762942e-03
4.798726469067472050e-03
4.481847935627882203e-03
4.162239797119031241e-03
3.841281330733202753e-03
3.520276701673945643e-03
3.200442793199192483e-03
2.882899129264326205e-03
2.568659419056497015e-03
2.258624500148490640e-03
1.953576487521640950e-03
1.654173791974205936e-03
1.360946654567886036e-03
1.074293126379509107e-03
7.944757802087443980e-04
5.216194860368980873e-04
2.557103007249550051e-04
-3.404642454653392355e-06
-2.560161115244331039e-04
-5.025501453679217384e-04
-7.435634239149912540e-04
-9.797367526160382159e-04
-1.211867167194520751e-03
-1.440859094453545526e-03
-1.667714711751966438e-03
-1.893523551288941835e-03
-2.119451501941587313e-03
-2.346729301822825936e-03
-2.576640219580404907e-03
-2.810506213870303353e-03
-3.049671864243490467e-03
-3.295485829383304997e-03
-3.549280255714979716e-03
-3.812349236622999439e-03
-4.085927977341747945e-03
-4.371174476929503942e-03
-4.669155056254865703e-03
-4.980834124161824007e-03
-5.307067699734563208e-03
-5.648599747361558732e-03
-6.006060349864508589e-03
-6.379965068996384589e-03
-6.770715394751262994e-03
-7.178600595193152835e-03
-7.603801147985369061e-03
-8.046393382589611676e-03
-8.506354614379495888e-03
-8.983568298085380099e-03
-9.477829246102532565e-03
-9.988849169645614562e-03
-1.051626259165138778e-02
-1.105963292852166213e-02
-1.161845855239866838e-02
-1.219217881704765319e-02
-1.278018006029646610e-02
-1.338180141191164241e-02
-1.399634010143364742e-02
-1.462305619841921742e-02
-1.526117729685442723e-02
-1.590990406063904142e-02
-1.656841723385850049e-02
-1.723588582379662060e-02
-1.791147555960147936e-02
-1.859435712791028192e-02
-1.928371475794166123e-02
-1.997875632346567468e-02
-2.067872539363732609e-02
-2.138291387804185789e-02
-2.209067234067725594e-02
-2.280141504167278177e-02
-2.351461866738978335e-02
-2.422981647309521355e-02
-2.494659139152783853e-02
-2.566457143654692075e-02
-2.638342886519369837e-02
-2.710288244899444060e-02
-2.782270097953350521e-02
-2.854270602764935605e-02
-2.926277260907370059e-02
-2.998282729903809299e-02
-3.070284411192168716e-02
-3.142283890311989986e-02
-3.214286317526443559e-02
-3.286299816820405229e-02
-3.358335005612400614e-02
-3.430404679404092799e-02
-3.502523652749318234e-02
-3.574708674588022994e-02
-3.646978298155616194e-02
-3.719352610424570688e-02
-3.791852800897171916e-02
-3.864500630046546065e-02
-3.937317894058631196e-02
-4.010325958952998954e-02
-4.083545389314844481e-02
-4.156995673056126245e-02
-4.230695047480410864e-02
-4.304660425804931329e-02
-4.378907389920164844e-02
-4.453450185245245996e-02
-4.528301660497244252e-02
-4.603473132757508052e-02
-4.678974200094950658e-02
-4.754812555734810181e-02
-4.830993868639774785e-02
-4.907521772348575478e-02
-4.984397963465857923e-02
-5.061622405397723373e-02
-5.139193680718177892e-02
-5.217109567336777887e-02
-5.295367838509314889e-02
-5.373967122497560339e-02
-5.452907546732480015e-02
-5.532190952997304012e-02
-5.611820657971471060e-02
-5.691800878380937762e-02
-5.772135935845847804e-02
-5.852829267962346427e-02
-5.933882242602964846e-02
-6.015292851854565914e-02
-6.097054457247275822e-02
-6.179154749899248844e-02
-6.261574969175022487e-02
-6.344289291890409244e-02
-6.427264251505535042e-02
-6.510458076228761715e-02
-6.593819904478180616e-02
-6.677288917645617106e-02
-6.760793490431588060e-02
-6.844250443695228114e-02
-6.927564395926665008e-02
-7.010627161913900174e-02
-7.093317246446936841e-02
-7.175499646191947634e-02
-7.257026189034355979e-02
-7.337736428682792300e-02
-7.417458861151458860e-02
-7.496012179627963012e-02
-7.573206444029351170e-02
-7.648844205703057841e-02
-7.722721648109881487e-02
-7.794629741209627150e-02
-7.864355393062011368e-02
-7.931682630157876890e-02
-7.996393854202865636e-02
-8.058271161931486459e-02
-8.117097645686587037e-02
-8.172658608514937750e-02
-8.224742731292775111e-02
-8.273143329356222320e-02
-8.317659833816300197e-02
-8.358099510633745788e-02
-8.394279272028354333e-02
-8.426027361756505130e-02
-8.453184764305504695e-02
-8.475606331084840905e-02
-8.493161701587939594e-02
-8.505736055742817159e-02
-8.513230628744426765e-02
-8.515562874757583167e-02
-8.512666232079788009e-02
-8.504489558127065196e-02
-8.490996380365981033e-02
-8.472164126868021727e-02
-8.447983485172824714e-02
-8.418457995172891339e-02
-8.383603887530251264e-02
-8.343450052806926365e-02
-8.298037952460252109e-02
-8.247421326958524757e-02
-8.191665679114115695e-02
-8.130847602001316232e-02
-8.065054018369377520e-02
-7.994381343946545260e-02
-7.918934559866011580e-02
-7.838826205411646153e-02
-7.754175342850740116e-02
-7.665106554111156267e-02
-7.571748990424682912e-02
-7.474235431860788703e-02
-7.372701270352033376e-02
-7.267283358353414380e-02
-7.158118769578103446e-02
-7.045343616398962172e-02
-6.929092049361258721e-02
-6.809495414563312976e-02
-6.686681393134721874e-02
-6.560772942686168840e-02
-6.431887013898546224e-02
-6.300133187649109567e-02
-6.165612425150781423e-02
-6.028416030737724501e-02
-5.888624802213397041e-02
-5.746308294191081190e-02
-5.601524147440722912e-02
-5.454317464884697597e-02
-5.304720203555986224e-02
-5.152750549211843750e-02
-4.998412291714249278e-02
-4.841694273857834879e-02
-4.682569951169473360e-02
-4.520996983264508745e-02
-4.356916714543475344e-02
-4.190253503839228705e-02
-4.020914061170233200e-02
-3.848787051126193598e-02
-3.673743120908800480e-02
-3.495635307505667866e-02
-3.314299656398789207e-02
-3.129555907099550172e-02
-2.941208184595503483e-02
-2.749045694295150499e-02
-2.552843451736047653e-02
-2.352363105240088889e-02
-2.147353896222016154e-02
-1.937553725751580899e-02
-1.722690227259005002e-02
-1.502481781702344303e-02
-1.276638539166496250e-02
-1.044863596597530274e-02
-8.068544240210131710e-03
-5.623044785711484375e-03
-3.109048363238019197e-03
-5.234569313211116445e-04
2.136822949933225857e-03
4.874867449092046279e-03
7.693722357899015173e-03
1.059638909915533445e-02
1.358581054306396904e-02
1.666485795640891207e-02
1.983631996484844576e-02
2.310289325345526654e-02
2.646717385259476571e-02
2.993164793576119989e-02
3.349868184987724040e-02
3.717051179090686414e-02
4.094923361860142164e-02
4.483679298311923217e-02
4.883497572868275571e-02
5.294539864181222605e-02
5.716950078668946167e-02
6.150853562918331269e-02
6.596356389302952816e-02
7.053544688153291775e-02
7.522484010656337039e-02
8.003218750542019644e-02
8.495771695870701912e-02
9.000143779552013945e-02
9.516314037815207239e-02
1.004423971596092452e-01
1.058385644511486284e-01
1.113507846765453141e-01
1.169779895966387567e-01
1.227189052520355761e-01
1.285720591542833247e-01
1.345357899091422504e-01
1.406082590464360071e-01
1.467874641597589902e-01
1.530712518454362403e-01
1.594573292780837037e-01
1.659432747992562740e-01
1.725265493488423452e-01
1.792045104004033051e-01
1.859744284445142837e-01
1.928335047911091671e-01
1.997788897277739117e-01
2.068077010767803703e-01
2.139170433836035945e-01
2.211040270903309735e-01
2.283657862877775113e-01
2.356994939066653916e-01
2.431023739987409060e-01
2.505717110208698362e-01
2.581048556390300730e-01
2.656992263777524510e-01
2.733523070654845233e-01
2.810616410777087015e-01
2.888248240505860709e-01
2.966394966692103008e-01
3.045033385111687863e-01
3.124140631289095138e-01
3.203694139983804257e-01
3.283671609542591630e-01
3.364050971287495528e-01
3.444810365781788564e-01
3.525928122802257647e-01
3.607382734644936084e-01
3.689152813051256863e-01
3.771217032449475925e-01
3.853554077796747523e-01
3.936142620281550819e-01
4.018961332488455995e-01
4.101988933487195066e-01
4.185204237545011030e-01
4.268586177371500034e-01
4.352113783660112034e-01
4.435766119793254081e-01
4.519522185920750723e-01
4.603360815229018410e-01
4.687260585150459513e-01
4.771199758411361902e-01
4.855156257280183740e-01
4.939107664643536677e-01
5.023031240670911002e-01
5.106903943319460737e-01
5.190702443472792194e-01
5.274403130584980337e-01
5.357982110321498626e-01
5.441415197456559438e-01
5.524677902519924411e-01
5.607745402439516802e-01
5.690592480555316524e-01
5.773193424955374020e-01
5.855521885773112833e-01
5.937550706136438539e-01
6.019251749603469204e-01
6.100595743777428304e-01
6.181552147927379393e-01
6.262089041563750902e-01
6.342173029841285947e-01
6.421769169940650945e-01
6.500840930850629862e-01
6.579350198271028960e-01
6.657257326417955756e-01
6.734521226456617882e-01
6.811099473768887913e-01
6.886948414757656511e-01
6.962023256553701023e-01
7.036278128285262667e-01
7.109666110130845595e-01
7.182139235506123098e-01
7.253648479919018177e-01
7.324143753416409997e-01
7.393573909963787605e-01
7.461886778706058321e-01
7.529029213812331589e-01
7.594947154879178042e-01
7.659585688720915719e-01
7.722889104636345703e-01
7.784800937958856748e-01
7.845263999473640615e-01
7.904220389755812759e-01
7.961611498422610511e-01
8.017377991071006349e-01
8.071459791308356335e-01
8.123796068029996986e-01
8.174325235672844636e-01
8.222984968894253566e-01
8.269712227082566258e-01
8.314443280560787075e-01
8.357113728876541803e-01
8.397658502041750461e-01
8.436011839654048439e-01
8.472107251151622664e-01
8.505877468808157316e-01
8.537254406012566577e-01
8.566169124647002864e-01
8.592551805538025667e-01
8.616331716844685129e-01
8.637437187396304061e-01
8.655795601899568537e-01
8.671333430416633403e-01
8.683976290002362042e-01
8.693649027837474508e-01
8.700275820451176534e-01
8.703780293902997345e-01
8.704085672821031405e-01
8.701114961983371643e-01
8.694791162049806399e-01
8.685037524140433174e-01
8.671777847620800728e-01
8.654936814070216533e-01
8.634440334049748866e-01
8.610215876439566429e-01
8.582192758835056612e-01
8.550302392585389377e-01
8.514478483985461477e-01
8.474657190050756128e-01
8.430777220696156204e-01
8.382779878325646861e-01
8.330609033035057953e-01
8.274211040760856006e-01
8.213534614435149539e-01
8.148530652159744481e-01
8.079152018169845073e-01
8.005353270984179037e-01
7.927090340727775963e-01
7.844320168098902757e-01
7.757000324213692011e-01
7.665088632053652651e-01
7.568542807977350906e-01
7.467320136727265689e-01
7.361377186359154834e-01
7.250669562484126640e-01
7.135151696170888291e-01
7.014776657532760806e-01
6.889495987185767500e-01
6.759259539801132366e-01
6.624015336999395931e-01
6.483709430309745336e-01
6.338285778756934663e-01
6.187686148455603385e-01
6.031850040482998887e-01
5.870714648004506930e-01
5.704214839368967338e-01
5.532283165864719798e-01
5.354849898198027480e-01
5.171843096214751023e-01
4.983188709948692119e-01
4.788810705134731172e-01
4.588631210356873824e-01
4.382570691048781053e-01
4.170548155364457998e-01
3.952481384907424733e-01
3.728287170274083850e-01
3.497881530510580927e-01
3.261179907938230871e-01
3.018097344071088428e-01
2.768548647104893679e-01
2.512448555657356697e-01
2.249711896219247220e-01
1.980253733029019581e-01
1.703989519269893116e-01
1.420835267647444777e-01
1.130707756439782441e-01
8.335247742226505052e-02
5.292053917925864520e-02
2.176702416151916203e-02
-1.011582141722453670e-02
-4.273554370301903965e-02
-7.609945807288305553e-02
-1.102146254945777643e-01
-1.450878261720422169e-01
-1.807255300098686845e-01
-2.171338659258411630e-01
-2.543185932536063953e-01
-2.922850774327606649e-01
-3.310382698987810457e-01
-3.705826904160141599e-01
-4.109224099835143140e-01
-4.520610334516063644e-01
-4.940016821802251656e-01
-5.367469778696012384e-01
-5.802990289556241299e-01
-6.246594206874848121e-01
-6.698292092862299096e-01
-7.158089197517344404e-01
-7.625985464511160217e-01
-8.101975558594676219e-01
-8.586048914296146028e-01
-9.078189808907674019e-01
-9.578377460017363232e-01
-1.008658614246338292e+00
-1.060278531631043908e+00
-1.112693975591243500e+00
-1.165900966631634894e+00
-1.219895076722271376e+00
-1.274671432335089394e+00
-1.330224711005395744e+00
-1.386549132217613334e+00
-1.443638445183083263e+00
-1.501485916729550230e+00
-1.560084321920712114e+00
-1.619425938705715273e+00
-1.679502546470211355e+00
-1.740305427263508120e+00
-1.801825368076423572e+00
-1.864052662999500898e+00
-1.926977115046199618e+00
-1.990588038164225804e+00
-2.054874260078726422e+00
-2.119824126413669685e+00
-2.185425506558259290e+00
-2.251665802037529751e+00
-2.318531958280942273e+00
-2.386010480383173871e+00
-2.454087452877502518e+00
-2.522748562887688895e+00
-2.591979125261008488e+00
-2.661764107593487250e+00
-2.732088153108424677e+00
-2.802935600569738561e+00
-2.874290502071521924e+00
-2.946136640183277144e+00
-3.018457544933767611e+00
-3.091236509483012540e+00
-3.164456602559880594e+00
-3.238100676211035367e+00
-3.312151368218450465e+00
-3.386591098842469005e+00
-3.461402061485312487e+00
-3.536566207046249577e+00
-3.612065222146123133e+00
-3.687880501484905427e+00
-3.763993114294485576e+00
-3.840383764889414131e+00
-3.917032748240034667e+00
-3.993919902784917930e+00
-4.071024563336313129e+00
-4.148325516547229697e+00
-4.225800960555814889e+00
-4.303428469773993292e+00
-4.381184965473375215e+00
-4.459046692593201300e+00
-4.536989202856807957e+00
-4.614987343790057039e+00
-4.693015252628002898e+00
-4.771046353579365018e+00
-4.849053356891130484e+00
-4.927008258923055273e+00
-5.004882343798072064e+00
-5.082646188333930226e+00
-5.160269671937630420e+00
-5.237721991625667428e+00
-5.314971680051786329e+00
-5.391986622835908349e+00
-5.468734071762859195e+00
-5.545180652488267192e+00
-5.621292367849155980e+00
-5.697034598996883581e+00
-5.772372105725763092e+00
-5.847269025638738071e+00
-5.921688870944786132e+00
-5.995594522426448414e+00
-6.068948221432271417e+00
-6.141711561119580054e+00
-6.213845477259516414e+00
-6.285310237749512474e+00
-6.356065429600842087e+00
-6.426069942574337723e+00
-6.495281949247688758e+00
-6.563658882016895291e+00
-6.631157408712636148e+00
-6.697733409906179602e+00
-6.763341961421095228e+00
-6.827937324152092202e+00
-6.891472940708504247e+00
-6.953901436599755570e+00
-7.015174624059326902e+00
-7.075243508642448553e+00
-7.134058300506186612e+00
-7.191568432231387753e+00
-7.247722583285659326e+00
-7.302468709271458636e+00
-7.355754073433627305e+00
-7.407525278711843519e+00
-7.457728299850900910e+00
-7.506308515504901635e+00
-7.553210739562521425e+00
-7.598379249810387925e+00
-7.641757811696638925e+00
-7.683289696046058381e+00
-7.722917691718787836e+00
-7.760584116045181169e+00
-7.796230826071957942e+00
-7.829799232049248658e+00
-7.861230312410788734e+00
-7.890464628335176478e+00
-7.917442336371808942e+00
-7.942103198749742354e+00
-7.964386591645500779e+00
-7.984231511420069261e+00
-8.001576578198834611e+00
-8.016360036007535328e+00
-8.028519749328713928e+00
-8.037993197022194281e+00
-8.044717465362710485e+00
-8.048629242050855837e+00
-8.049664812518592782e+00
-8.047760059026263235e+00
-8.042850462195305639e+00
-8.034871103866459308e+00
-8.023756669751568538e+00
-8.009441450593843825e+00
-7.991859341469108813e+00
-7.970943839854156110e+00
-7.946628043378843209e+00
-7.918844647498189282e+00
-7.887525942152743497e+00
-7.852603805686138472e+00
-7.814009694463599942e+00
-7.771674627712823025e+00
-7.725529168447010875e+00
-7.675503402334670433e+00
-7.621526917020435832e+00
-7.563528784958382545e+00
-7.501437553137860093e+00
-7.435181242395932699e+00
-7.364687356882229530e+00
-7.289882901587378505e+00
-7.210694404531173163e+00
-7.127047941279741394e+00
-7.038869161943296149e+00
-6.946083322534344795e+00
-6.848615322247793458e+00
-6.746389746520645936e+00
-6.639330914365674907e+00
-6.527362928493046113e+00
-6.410409727706187333e+00
-6.288395141845913194e+00
-6.161242949582086403e+00
-6.028876938968061872e+00
-5.891220970454784656e+00
-5.748199042083483867e+00
-5.599735356546884368e+00
-5.445754389666840112e+00
-5.286180959848476135e+00
-5.120940298334332397e+00
-4.949958120270135709e+00
-4.773160696399457059e+00
-4.590474924826941638e+00
-4.401828402210951730e+00
-4.207149494090369757e+00
-4.006367404433691881e+00
-3.799412244555955720e+00
-3.586215101380920700e+00
-3.366708104985807637e+00
-3.140824495518352411e+00
-2.908498689574394280e+00
-2.669666345722589540e+00
-2.424264428428207996e+00
-2.172231269851083724e+00
-1.913506629926312375e+00
-1.648031755813564647e+00
-1.375749441274066065e+00
-1.096604085213340962e+00
-8.105417479750869347e-01
-5.175102046644012299e-01
-2.174589957945964325e-01
8.966052442910435460e-02
4.038951426432382807e-01
7.252897442703193365e-01
1.053887274359812887e+00
1.389728699512072785e+00
1.732852968976756003e+00
2.083296974307657479e+00
2.441095508659675950e+00
2.806281227875486284e+00
3.178884615355272114e+00
3.558933951250805361e+00
3.946455284371732652e+00
4.341472403675989078e+00
4.744006806550585154e+00
5.154077663056026104e+00
5.571701777149947965e+00
5.996893545948940307e+00
6.429664916480338555e+00
6.870025337953339140e+00
7.317981707918380430e+00
7.773538312484337354e+00
8.236696762283616025e+00
8.707455925812995545e+00
9.185811860471694956e+00
9.671757740453827523e+00
1.016528378061160964e+01
1.066637715633761552e+01
1.117502192056751831e+01
1.169119891946323264e+01
1.221488570807805729e+01
1.274605646673553139e+01
1.328468191854465807e+01
1.383072924873348164e+01
1.438416202704687841e+01
1.494494013457592807e+01
1.551301969544404002e+01
1.608835301200204171e+01
1.667088850074020101e+01
1.726057062620150973e+01
1.785733983186430862e+01
1.846113246902262972e+01
1.907188072564151682e+01
1.968951255659340660e+01
2.031395161548685735e+01
2.094511718759740404e+01
2.158292412345848277e+01
2.222728277297421329e+01
2.287809892008039725e+01
2.353527371803197354e+01
2.419870362541463393e+01
2.486828034290964951e+01
2.554389075074315940e+01
2.622541684684935959e+01
2.691273568610453282e+01
2.760571932122371308e+01
2.830423474571492903e+01
2.900814383866633861e+01
2.971730331044184581e+01
3.043156464800378558e+01
3.115077405880748884e+01
3.187477241288308605e+01
3.260339518336259346e+01
3.333647238591480289e+01
3.407382851732919704e+01
3.481528249314636980e+01
3.556064758399237746e+01
3.630973135026800236e+01
3.706233557526466171e+01
3.781825619761408319e+01
3.857728324459014857e+01
3.933920076729850024e+01
4.010378677720938612e+01
4.087081318200399949e+01
4.164004571855623027e+01
4.241124388203755302e+01
4.318416085146234451e+01
4.395854341254941744e+01
4.473413187870681185e+01
4.551066001094624625e+01
4.628785493781890636e+01
4.706543707660605946e+01
4.784312005673896095e+01
4.862061064621515527e+01
4.939760868213118528e+01
5.017380700694950946e+01
5.094889141166414959e+01
5.172254058527362020e+01
5.249442606808771217e+01
5.326421220604052564e+01
5.403155610469374892e+01
5.479610758356096056e+01
5.555750913200671448e+01
5.631539586692334609e+01
5.706939549096424713e+01
5.781912824990241973e+01
5.856420688907221717e+01
5.930423661076885367e+01
6.003881503541155240e+01
6.076753216852726069e+01
6.148997037377545638e+01
6.220570435063822856e+01
6.291430111504332956e+01
6.361531998196038984e+01
6.430831254983860390e+01
6.499282268670960150e+01
6.566838651713189279e+01
6.633453240906668213e+01
6.699078096080812372e+01
6.763664498936039138e+01
6.827162952188209033e+01
6.889523179091914074e+01
6.950694123322874418e+01
7.010623949193889359e+01
7.069260042236793140e+01
7.126549010230068859e+01
7.182436684749151823e+01
7.236868123269606201e+01
7.289787611781925136e+01
7.341138667819301133e+01
7.390864043822675455e+01
7.438905730905561597e+01
7.485204963260677857e+01
7.529702223525114846e+01
7.572337249321439856e+01
7.613049041005210427e+01
7.651775870510788025e+01
7.688455291126476254e+01
7.723024147972357412e+01
7.755418588870134045e+01
7.785574075276650774e+01
7.813425393102720307e+01
7.838906663506669759e+01
7.861951353952707677e+01
7.882492289819606412e+01
7.900461666680138251e+01
7.915791063211854350e+01
7.928411454659985225e+01
7.938253226827902154e+01
7.945246190619225501e+01
7.949319597145270677e+01
7.950402153380809978e+01
7.948422038366608433e+01
7.943306920022992301e+01
7.934983972689461496e+01
7.923379895486314695e+01
7.908420931528337405e+01
7.890032887977343989e+01
7.868141156930248314e+01
7.842670737163861361e+01
7.813546256745172514e+01
7.780691996468731020e+01
7.744031914057786992e+01
7.703489669110518889e+01
7.658988648862562343e+01
7.610451994886744842e+01
7.557802630800178179e+01
7.500963290936586247e+01
7.439856549868825653e+01
7.374404852675041866e+01
7.304530545861875623e+01
7.230155908805751608e+01
7.151203185483853986e+01
7.067594616275117403e+01
6.979252469779780199e+01
6.886099074812150889e+01
6.788056852778161954e+01
6.685048350522659177e+01
6.576996273581225694e+01
6.463823519754591018e+01
6.345453213009047744e+01
6.221808737737782025e+01
6.092813773334520278e+01
5.958392328942997551e+01
5.818468778274039721e+01
5.672967894485310580e+01
5.521814885146725516e+01
5.364935427208931173e+01
5.202255701766911500e+01
5.033702428412874497e+01
4.859202899110859164e+01
4.678685011673081107e+01
4.492077302962287177e+01
4.299308981892879444e+01
4.100309962241112061e+01
3.895010895260711692e+01
3.683343202135736760e+01
3.465239106368706956e+01
3.240631666283461954e+01
3.009454807884634420e+01
2.771643358305237470e+01
2.527133079975884300e+01
2.275860705537627737e+01
2.017763973506808384e+01
1.752781664809706186e+01
1.480853640428210660e+01
1.201920880403176639e+01
9.159255243236451349e+00
6.228109133092322836e+00
3.225216334723319811e+00
1.500356090406939347e-01
-2.997960917290769522e+00
-6.219287269018733078e+00
-9.514443122042122170e+00
-1.288391328498093102e+01
-1.632816716149625336e+01
-1.984765819244434581e+01
-2.344282327779943387e+01
-2.711408217915912999e+01
-3.086183690379066391e+01
-3.468647107069024571e+01
-3.858834925887661882e+01
-4.256781633858584257e+01
-4.662519678655348798e+01
-5.076079398622885464e+01
-5.497488951256109857e+01
-5.926774239995395277e+01
-6.363958839207397489e+01
-6.809063917343394223e+01
-7.262108158424285875e+01
-7.723107682096173221e+01
-8.192075962483514218e+01
-8.669023745960892313e+01
-9.153958967849267481e+01
-9.646886667995585185e+01
-1.014780890522684160e+02
-1.065672467071938456e+02
-1.117362980032651478e+02
-1.169851688586577012e+02
-1.223137518534365142e+02
-1.277219053212876645e+02
-1.332094524314007344e+02
-1.387761802613547104e+02
-1.444218388616467621e+02
-1.501461403125086633e+02
-1.559487577743355473e+02
-1.618293245340654494e+02
-1.677874330504122042e+02
-1.738226340005859925e+02
-1.799344353303190474e+02
-1.861223013080496855e+02
-1.923856515831743650e+02
-1.987238602476329561e+02
-2.051362549002749063e+02
-2.116221157146156600e+02
-2.181806745119902189e+02
-2.248111138426398554e+02
-2.315125660765499731e+02
-2.382841125045835042e+02
-2.451247824497825150e+02
-2.520335523893380412e+02
-2.590093450893033378e+02
-2.660510287553896092e+02
-2.731574162028821888e+02
-2.803272640467174028e+02
-2.875592719103221953e+02
-2.948520816505796915e+02
-3.022042765969169977e+02
-3.096143808042713772e+02
-3.170808583211459108e+02
-3.246021124740892105e+02
-3.321764851687231612e+02
-3.398022562057681739e+02
-3.474776426094611566e+02
-3.552007979659280181e+02
-3.629698117702189393e+02
-3.707827087820072620e+02
-3.786374483906089381e+02
-3.865319239897648345e+02
-3.944639623618571136e+02
-4.024313230704693751e+02
-4.104316978599138679e+02
-4.184627100606765566e+02
-4.265219140003116536e+02
-4.346067944195978612e+02
-4.427147658935086838e+02
-4.508431722560986827e+02
-4.589892860282823790e+02
-4.671503078478204429e+02
-4.753233659014111367e+02
-4.835055153594573198e+02
-4.916937378149007145e+02
-4.998849407284480435e+02
-5.080759568832064019e+02
-5.162635438518549336e+02
-5.244443834791320569e+02
-5.326150813821016072e+02
-5.407721664706380125e+02
-5.489120904904970075e+02
-5.570312275906811692e+02
-5.651258739156221509e+02
-5.731922472217037239e+02
-5.812264865175327486e+02
-5.892246517281846536e+02
-5.971827233847864136e+02
-6.050966023413308221e+02
-6.129621095199859155e+02
-6.207749856847832461e+02
-6.285308912425057315e+02
-6.362254060696518536e+02
-6.438540293653505842e+02
-6.514121795311018559e+02
-6.588951940785640318e+02
-6.662983295663717627e+02
-6.736167615664934374e+02
-6.808455846600437553e+02
-6.879798124616011137e+02
-6.950143776699836735e+02
-7.019441321425694014e+02
-7.087638469901719418e+02
-7.154682126901628862e+02
-7.220518392162407508e+02
-7.285092561832972251e+02
-7.348349130054506304e+02
-7.410231790653516555e+02
-7.470683438936873699e+02
-7.529646173588320153e+02
-7.587061298670519136e+02
-7.642869325733709047e+02
-7.697009976025217384e+02
-7.749422182788885038e+02
-7.800044093643866745e+02
-7.848813073038166976e+02
-7.895665704775769882e+02
-7.940537794607571414e+02
-7.983364372856897262e+02
-8.024079697036644347e+02
-8.062617254423303166e+02
-8.098909764580926094e+02
-8.132889181855542802e+02
-8.164486697871275283e+02
-8.193632744055980766e+02
-8.220256994219106446e+02
-8.244288367202848349e+02
-8.265655029624564349e+02
-8.284284398721238176e+02
-8.300103145303277188e+02
-8.313037196835325631e+02
-8.323011740686880557e+02
-8.329951227624322883e+02
-8.333779375636720488e+02
-8.334419174197759048e+02
-8.331792889069669172e+02
-8.325822067754467071e+02
-8.316427545690344232e+02
-8.303529453275377818e+02
-8.287047223784682046e+02
-8.266899602243219078e+02
-8.243004655329179968e+02
-8.215279782400716613e+02
-8.183641727742372041e+02
-8.148006594107140472e+02
-8.108289857595780177e+02
-8.064406383890018333e+02
-8.016270445856762308e+02
-7.963795742561628686e+02
-7.906895419752942189e+02
-7.845482091887474780e+02
-7.779467865768486945e+02
-7.708764365864615229e+02
-7.633282761377514589e+02
-7.552933795120534342e+02
-7.467627814256860574e+02
-7.377274802930407986e+02
-7.281784416816287830e+02
-7.181066019620321867e+02
-7.075028721559656333e+02
-6.963581419851930150e+02
-6.846632841230375561e+02
-6.724091586494084822e+02
-6.595866177100941741e+02
-6.461865103813299811e+02
-6.321996877407867714e+02
-6.176170081458556069e+02
-6.024293427195048025e+02
-5.866275810433019160e+02
-5.702026370565504294e+02
-5.531454551598976650e+02
-5.354470165211372432e+02
-5.170983455801284663e+02
-4.980905167489449354e+02
-4.784146613031661559e+02
-4.580619744611352644e+02
-4.370237226494620586e+02
-4.152912509534711489e+02
-3.928559907495462653e+02
-3.697094675130498445e+02
-3.458433087925728842e+02
-3.212492523400686082e+02
-2.959191543869642942e+02
-2.698449980580008969e+02
-2.430189019167454489e+02
-2.154331286387219393e+02
-1.870800938087027987e+02
-1.579523748368664542e+02
-1.280427199846720612e+02
-9.734405748743262166e+01
-6.584950475866727970e+01
-3.355237766159103785e+01
-4.461998341052904604e-01
3.347528794591024592e+01
6.821811836825257558e+01
1.037880881840164164e+02
1.401907487974919491e+02
1.774313968678697506e+02
2.155150649316675526e+02
2.544465120562816765e+02
2.942302145348608633e+02
3.348703566332651462e+02
3.763708214011422228e+02
4.187351815602651754e+02
4.619666904834981551e+02
5.060682732773511816e+02
5.510425179807002678e+02
5.968916668917297557e+02
6.436176080335944789e+02
6.912218667664895975e+02
7.397055975511465249e+02
7.890695758679964911e+02
8.393141902976880147e+02
8.904394347709288695e+02
9.424449009971339137e+02
9.953297710813791355e+02
1.049092810337852825e+03
1.103732360305758220e+03
1.159246331970865640e+03
1.215632199193099495e+03
1.272886992338217397e+03
1.331007292110180515e+03
1.389989223580333601e+03
1.449828450409666857e+03
1.510520169260472812e+03
1.572059104392821610e+03
1.634439502439296575e+03
1.697655127349121358e+03
1.761699255491217173e+03
1.826564670905240064e+03
1.892243660689716762e+03
1.958728010516264703e+03
2.026009000258264905e+03
2.094077399721508755e+03
2.162923464463637629e+03
2.232536931688866389e+03
2.302907016204636420e+03
2.374022406427492569e+03
2.445871260426390563e+03
2.518441201992130118e+03
2.591719316721078030e+03
2.665692148100070426e+03
2.740345693578417468e+03
2.815665400613183010e+03
2.891636162675280502e+03
2.968242315205387058e+03
3.045467631509618059e+03
3.123295318585506266e+03
3.201708012869752565e+03
3.280687775900588804e+03
3.360216089888862825e+03
3.440273853192836214e+03
3.520841375692722067e+03
3.601898374062894618e+03
3.683423966942434618e+03
3.765396670007521152e+03
3.847794390951603418e+03
3.930594424381395584e+03
4.013773446639014310e+03
4.097307510563214237e+03
4.181172040205445228e+03
4.265341825518726182e+03
4.349791017038868631e+03
4.434493120578503294e+03
4.519420991954945748e+03
4.604546831773349368e+03
4.689842180286947951e+03
4.775277912356444176e+03
4.860824232530771951e+03
4.946450670271166928e+03
5.032126075339461750e+03
5.117818613369804552e+03
5.203495761641481295e+03
5.289124305069649381e+03
5.374670332430355302e+03
5.460099232835390467e+03
5.545375692470909598e+03
5.630463691611648755e+03
5.715326501920751070e+03
5.799926684043776731e+03
5.884226085503400100e+03
5.968185838898278234e+03
6.051766360406220883e+03
6.134927348589599205e+03
6.217627783500295664e+03
6.299825926081231046e+03
6.381479317860435913e+03
6.462544780931559217e+03
6.542978418212202996e+03
6.622735613968414327e+03
6.701771034590154159e+03
6.780038629599265732e+03
6.857491632869013301e+03
6.934082564032200935e+03
7.009763230052103609e+03
7.084484726926662006e+03
7.158197441493259248e+03
7.230851053300712010e+03
7.302394536516580956e+03
7.372776161838997723e+03
7.441943498381416248e+03
7.509843415497373826e+03
7.576422084513220398e+03
7.641624980340302500e+03
7.705396882941973672e+03
7.767681878632925873e+03
7.828423361189543357e+03
7.887564032752844469e+03
7.945045904511106528e+03
8.000810297155934677e+03
8.054797841111426351e+03
8.106948476540812408e+03
8.157201453139645309e+03
8.205495329730032608e+03
8.251767973676141992e+03
8.295956560146270931e+03
8.337997571250869441e+03
8.377826795089438747e+03
8.415379324742922108e+03
8.450589557252460509e+03
8.483391192629462239e+03
8.513717232945178694e+03
8.541499981549435688e+03
8.566671042468155065e+03
8.589161320029068520e+03
8.608901018765589470e+03
8.625819643649852878e+03
8.639846000706620543e+03
8.650908198060024006e+03
8.658933647465848480e+03
8.663849066384240359e+03
8.665580480651189646e+03
8.664053227810223689e+03
8.659191961166752662e+03
8.650920654626430405e+03
8.639162608377449942e+03
8.623840455476320130e+03
8.604876169397684862e+03
8.582191072609908588e+03
8.555705846238777667e+03
8.525340540881716151e+03
8.491014588634659958e+03
8.452646816393009431e+03
8.410155460486677839e+03
8.363458182706935986e+03
8.312472087779156936e+03
8.257113742330751847e+03
8.197299195398431038e+03
8.132944000515416519e+03
8.063963239418371813e+03
7.990271547414461565e+03
7.911783140448324957e+03
7.828411843904540547e+03
7.740071123173786873e+03
7.646674116002896881e+03
7.548133666643146171e+03
7.444362361807877278e+03
7.335272568448720449e+03
7.220776473357447685e+03
7.100786124596217633e+03
6.975213474752015827e+03
6.843970426002189015e+03
6.706968876968664517e+03
6.564120771330301977e+03
6.415338148155753515e+03
6.260533193912225215e+03
6.099618296098326937e+03
5.932506098442511757e+03
5.759109557603665962e+03
5.579342001307280043e+03
5.393117187847855348e+03
5.200349366884163828e+03
5.000953341448150240e+03
4.794844531082182584e+03
4.581939036014843623e+03
4.362153702283003440e+03
4.135406187706646961e+03
3.901615028621961756e+03
3.660699707277720336e+03
3.412580719800517727e+03
3.157179644635223212e+03
2.894419211366838681e+03
2.624223369828789146e+03
2.346517359402145757e+03
2.061227778411949203e+03
1.768282653530826792e+03
1.467611509105645837e+03
1.159145436329163431e+03
8.428171621852742419e+02
5.185611181033731327e+02
1.863135082642497764e+02
-1.539876224933204583e+02
-5.024023212094888322e+02
-8.589886598214031892e+02
-1.223802668693371288e+03
-1.596898270682596149e+03
-1.978327215755401767e+03
-2.368139016159775565e+03
-2.766380882151607693e+03
-3.173097658264734946e+03
-3.588331760107932496e+03
-4.012123111664189310e+03
-4.444509083059038858e+03
-4.885524428756462839e+03
-5.335201226133579439e+03
-5.793568814378526440e+03
-6.260653733649207425e+03
-6.736479664424494331e+03
-7.221067366974932156e+03
-7.714434620876702866e+03
-8.216596164489375951e+03
-8.727563634314054070e+03
-9.247345504144866936e+03
-9.775947023924980385e+03
-1.031337015821875684e+04
-1.085961352421324773e+04
-1.141467232916416469e+04
-1.197853830720398764e+04
-1.255119965543316721e+04
-1.313264096921874079e+04
-1.372284317662742978e+04
-1.432178347192328511e+04
-1.492943524806411006e+04
-1.554576802813618815e+04
-1.617074739567198048e+04
-1.680433492379902600e+04
-1.744648810317008974e+04
-1.809716026862539002e+04
-1.875630052453888493e+04
-1.942385366880314541e+04
-2.009976011541200933e+04
-2.078395581560681603e+04
-2.147637217756058089e+04
-2.217693598458444103e+04
-2.288556931185140274e+04
-2.360218944164397908e+04
-2.432670877714307062e+04
-2.505903475478462860e+04
-2.579906975521854110e+04
-2.654671101291264495e+04
-2.730185052445682595e+04
-2.806437495563764969e+04
-2.883416554737152910e+04
-2.961109802060034053e+04
-3.039504248026608184e+04
-3.118586331849059206e+04
-3.198341911709399210e+04
-3.278756254959268699e+04
-3.359814028282492654e+04
-3.441499287835868017e+04
-3.523795469384273019e+04
-3.606685378446871619e+04
-3.690151180472000124e+04
-3.774174391059310437e+04
-3.858735866248916864e+04
-3.943815792898476502e+04
-4.029393679170031101e+04
-4.115448345149018132e+04
-4.201957913618285238e+04
-4.288899801010346710e+04
-4.376250708561696956e+04
-4.463986613693732215e+04
-4.552082761645638675e+04
-4.640513657385606348e+04
-4.729253057827881275e+04
-4.818273964384316059e+04
-4.907548615879855788e+04
-4.997048481861695473e+04
-5.086744256331734505e+04
-5.176605851931612415e+04
-5.266602394608972099e+04
-5.356702218792654458e+04
-5.446872863103111740e+04
-5.537081066622502112e+04
-5.627292765746983059e+04
-5.717473091641984502e+04
-5.807586368319905159e+04
-5.897596111358398775e+04
-5.987465027275821194e+04
-6.077155013578328362e+04
-6.166627159490568738e+04
-6.255841747379344451e+04
-6.344758254877512809e+04
-6.433335357713813573e+04
-6.521530933252435352e+04
-6.609302064743675874e+04
-6.696605046284028504e+04
-6.783395388480872498e+04
-6.869627824813785264e+04
-6.955256318681042467e+04
-7.040234071115864208e+04
-7.124513529152545379e+04
-7.208046394818200497e+04
-7.290783634721630369e+04
-7.372675490206864197e+04
-7.453671488035179209e+04
-7.533720451555680484e+04
-7.612770512320683338e+04
-7.690769122098411026e+04
-7.767663065231812652e+04
-7.843398471288789005e+04
-7.917920827945671044e+04
-7.991174994042489561e+04
-8.063105212745502649e+04
-8.133655124749765673e+04
-8.202767781451965857e+04
-8.270385658021399286e+04
-8.336450666294491384e+04
-8.400904167415904521e+04
-8.463686984147116891e+04
-8.524739412761636777e+04
-8.584001234445243608e+04
-8.641411726120319508e+04
-8.696909670615568757e+04
-8.750433366105872847e+04
-8.801920634751424950e+04
-8.851308830470769317e+04
-8.898534845788691018e+04
-8.943535117706895107e+04
-8.986245632552939060e+04
-9.026601929770638526e+04
-9.064539104623319872e+04
-9.099991809790139087e+04
-9.132894255845030420e+04
-9.163180210617731791e+04
-9.190782997446732770e+04
-9.215635492344851082e+04
-9.237670120109325217e+04
-9.256818849419189792e+04
-9.273013186973391566e+04
-9.286184170733904466e+04
-9.296262362348593888e+04
-9.303177838838638854e+04
-9.306860183644850622e+04
-9.307238477136079746e+04
-9.304241286691122514e+04
-9.297796656473045005e+04
-9.287832097021923983e+04
-9.274274574798518734e+04
-9.257050501817349868e+04
-9.236085725512914360e+04
-9.211305518987249525e+04
-9.182634571790491464e+04
-9.149996981388024869e+04
-9.113316245468526904e+04
-9.072515255246699962e+04
-9.027516289912896173e+04
-8.978241012378843152e+04
-8.924610466464675847e+04
-8.866545075667955098e+04
-8.803964643650373910e+04
-8.736788356572767952e+04
-8.664934787403787777e+04
-8.588321902322208916e+04
-8.506867069326831552e+04
-8.420487069161100953e+04
-8.329098108651874645e+04
-8.232615836553464760e+04
-8.130955361979371810e+04
-8.024031275495036971e+04
-7.911757672935420123e+04
-7.794048182001273381e+04
-7.670815991677829879e+04
-7.541973884509626077e+04
-7.407434271755391092e+04
-7.267109231437301787e+04
-7.120910549289266055e+04
-6.968749762599339010e+04
-6.810538206932332832e+04
-6.646187065710344177e+04
-6.475607422621125443e+04
-6.298710316816769773e+04
-6.115406800858208589e+04
-5.925608001354425505e+04
-5.729225182238761045e+04
-5.526169810618083284e+04
-5.316353625123965321e+04
-5.099688706688304228e+04
-4.876087551659230667e+04
-4.645463147166845010e+04
-4.407729048642313865e+04
-4.162799459388058312e+04
-3.910589312091132888e+04
-3.651014352166859317e+04
-3.383991222815313813e+04
-3.109437551669475943e+04
-2.827272038910598712e+04
-2.537414546723630338e+04
-2.239786189963167271e+04
-1.934309427898522699e+04
-1.620908156905306532e+04
-1.299507803970394161e+04
-9.700354208772296261e+03
-6.324197789388578713e+03
-2.865914641469405524e+03
6.751702739355661151e+02
4.299711938721145088e+03
8.008344321479951759e+03
1.180167942214809955e+04
1.568030631872153754e+04
1.964479021718019430e+04
2.369567150571163438e+04
2.783346481427503386e+04
3.205865808048993858e+04
3.637171162277392432e+04
4.077305722159056313e+04
4.526309720960588311e+04
4.984220357148800394e+04
5.451071705402052612e+04
5.926894628713631391e+04
6.411716691641328362e+04
6.905562074750565807e+04
7.408451490291407390e+04
7.920402099142746010e+04
8.441427429050108185e+04
8.971537294176616706e+04
9.510737715979533095e+04
1.005903084541766148e+05
1.061641488648778613e+05
1.118288402108137961e+05
1.175842833514651720e+05
1.234303374613462656e+05
1.293668193170712329e+05
1.353935025967271940e+05
1.415101171912206628e+05
1.477163485272267426e+05
1.540118369013415650e+05
1.603961768250190944e+05
1.668689163798589725e+05
1.734295565828009276e+05
1.800775507607725740e+05
1.868123039343289274e+05
1.936331722098158498e+05
2.005394621795846033e+05
2.075304303297758452e+05
2.146052824551796366e+05
2.217631730806647101e+05
2.290032048886666307e+05
2.363244281522287929e+05
2.437258401730931364e+05
2.512063847243366181e+05
2.587649514970438613e+05
2.664003755504907458e+05
2.741114367652959772e+05
2.818968592989773606e+05
2.897553110433375696e+05
2.976854030831003911e+05
3.056856891552248271e+05
3.137546651083386387e+05
3.218907683617554139e+05
3.300923773635735270e+05
3.383578110474033165e+05
3.466853282873081043e+05
3.550731273505723220e+05
3.635193453479294549e+05
3.720220576808904880e+05
3.805792774858035846e+05
3.891889550742544234e+05
3.978489773693816387e+05
4.065571673376463004e+05
4.153112834155603196e+05
4.241090189308420522e+05
4.329480015174301225e+05
4.418257925237636664e+05
4.507398864137282362e+05
4.596877101596660796e+05
4.686666226268719183e+05
4.776739139490529196e+05
4.867068048943115864e+05
4.957624462213258957e+05
5.048379180255397805e+05
5.139302290753283305e+05
5.230363161382650142e+05
5.321530432977917371e+05
5.412772012607533252e+05
5.504055066563903820e+05
5.595346013274937868e+05
5.686610516145185102e+05
5.777813476335393498e+05
5.868919025490088388e+05
5.959890518423516769e+05
6.050690525774883572e+05
6.141280826644144254e+05
6.231622401219755411e+05
6.321675423409724608e+05
6.411399253487382084e+05
6.500752430763393641e+05
6.589692666295691160e+05
6.678176835649327841e+05
6.766160971719077788e+05
6.853600257628945401e+05
6.940449019724627724e+05
7.026660720677315257e+05
7.112187952719960595e+05
7.196982431040096562e+05
7.280994987356212223e+05
7.364175563707271358e+05
7.446473206487486605e+05
7.527836060760673136e+05
7.608211364890260156e+05
7.687545445522513473e+05
7.765783712961829733e+05
7.842870656978010666e+05
7.918749843086058972e+05
7.993363909339419333e+05
8.066654563677635742e+05
8.138562581869156566e+05
8.209027806089181686e+05
8.277989144170930376e+05
8.345384569566865684e+05
8.411151122054308653e+05
8.475224909217732493e+05
8.537541108738097828e+05
8.598033971517722821e+05
8.656636825667327503e+05
8.713282081380381715e+05
8.767901236718656728e+05
8.820424884331771173e+05
8.870782719132624334e+05
8.918903546949964948e+05
8.964715294178766198e+05
9.008145018448479241e+05
9.049118920328413369e+05
9.087562356088459492e+05
9.123399851532186149e+05
9.156555116917844862e+05
9.186951062980946153e+05
9.214509818069915054e+05
9.239152746404034551e+05
9.260800467460356886e+05
9.279372876493573422e+05
9.294789166190117830e+05
9.306967849454727257e+05
9.315826783324159915e+05
9.321283193998780334e+05
9.323253702978487127e+05
9.321654354285070440e+05
9.316400642748766113e+05
9.307407543332737405e+05
9.294589541465186048e+05
9.277860664344646502e+05
9.257134513179522473e+05
9.232324296318228589e+05
9.203342863221829757e+05
9.170102739227217389e+05
9.132516161045606714e+05
9.090495112938532839e+05
9.043951363511388190e+05
8.992796503063035198e+05
8.936941981429202715e+05
8.876299146257404936e+05
8.810779281652113423e+05
8.740293647131150356e+05
8.664753516837449279e+05
8.584070218954405282e+05
8.498155175277745584e+05
8.406919940902085509e+05
8.310276243986149784e+05
8.208136025567098986e+05
8.100411479401233373e+05
7.987015091815600172e+05
7.867859681562500773e+05
7.742858439676536946e+05
7.611924969341715332e+05
7.474973325784007320e+05
7.331918056212342344e+05
7.182674239838144276e+05
7.027157528010059614e+05
6.865284184506277088e+05
6.696971126031638123e+05
6.522135962970886612e+05
6.340697040452710353e+05
6.152573479781470960e+05
5.957685220294531900e+05
5.755953061702849809e+05
5.547298706970982021e+05
5.331644805789976381e+05
5.108914998692848021e+05
4.879033961857768591e+05
4.641927452638873365e+05
4.397522355858802912e+05
4.145746730891045299e+05
3.886529859553881106e+05
3.619802294831371401e+05
3.345495910430399235e+05
3.063543951176216360e+05
2.773881084242404904e+05
2.476443451204665471e+05
2.171168720901489432e+05
1.857996143078707973e+05
1.536866602789162425e+05
1.207722675513363938e+05
8.705086829620710341e+04
5.251707495173026109e+04
1.716568592645183162e+04
-1.900830864343340363e+04
-5.600972108794684755e+04
-9.384316035376608488e+04
-1.325130261167153367e+05
-1.720235028617724311e+05
-2.123785539359684917e+05
-2.535819155793918762e+05
-2.956370909392707399e+05
-3.385473440718055936e+05
-3.823156939360600081e+05
-4.269449083837996586e+05
-4.724374981487132609e+05
-5.187957108379564597e+05
-5.660215249284337042e+05
-6.141166437696765643e+05
-6.630824895945943426e+05
-7.129201975387724815e+05
-7.636306096683844225e+05
-8.152142690161601640e+05
-8.676714136242287932e+05
-9.210019705920369597e+05
-9.752055501269401284e+05
-1.030281439594460651e+06
-1.086228597564622527e+06
-1.143045647850246867e+06
-1.200730873532624682e+06
-1.259282210969563341e+06
-1.318697243780469289e+06
-1.378973196802889463e+06
-1.440106930014736252e+06
-1.502094932416268392e+06
-1.564933315865804208e+06
-1.628617808863064973e+06
-1.693143750273982761e+06
-1.758506082990710391e+06
-1.824699347520403797e+06
-1.891717675496142125e+06
-1.959554783103156136e+06
-2.028203964413362788e+06
-2.097658084621075075e+06
-2.167909573172759730e+06
-2.238950416783848312e+06
-2.310772152335880790e+06
-2.383365859647646081e+06
-2.456722154114447068e+06
-2.530831179210166913e+06
-2.605682598847399931e+06
-2.681265589591572993e+06
-2.757568832725766115e+06
-2.834580506163942628e+06
-2.912288276211510412e+06
-2.990679289173512720e+06
-3.069740162812164519e+06
-3.149456977656854317e+06
-3.229815268171080854e+06
-3.310800013782114722e+06
-3.392395629780345131e+06
-3.474585958096415270e+06
-3.557354257965401281e+06
-3.640683196488440502e+06
-3.724554839103393257e+06
-3.808950639977238607e+06
-3.893851432333937846e+06
-3.979237418732507154e+06
-4.065088161311109550e+06
-4.151382572014082689e+06
-4.238098902819987386e+06
-4.325214735989910550e+06
-4.412706974356350489e+06
-4.500551831673925743e+06
-4.588724823053805158e+06
-4.677200755504130386e+06
-4.765953718598931096e+06
-4.854957075298137963e+06
-4.944183452941395342e+06
-5.033604734438523650e+06
-5.123192049679689109e+06
-5.212915767188438214e+06
-5.302745486040548421e+06
-5.392650028071099892e+06
-5.482597430391379632e+06
-5.572554938236073591e+06
-5.662488998159676790e+06
-5.752365251599088311e+06
-5.842148528817012906e+06
-5.931802843238025904e+06
-6.021291386185914278e+06
-6.110576522027268074e+06
-6.199619783722556196e+06
-6.288381868782294914e+06
-6.376822635622506961e+06
-6.464901100310347043e+06
-6.552575433687484823e+06
-6.639802958855642937e+06
-6.726540149005620740e+06
-6.812742625568298623e+06
-6.898365156663647853e+06
-6.983361655821724795e+06
-7.067685180947928689e+06
-7.151287933503537439e+06
-7.234121257871731184e+06
-7.316135640878870152e+06
-7.397280711440785788e+06
-7.477505240304424427e+06
-7.556757139856426977e+06
-7.634983463972016238e+06
-7.712130407880081795e+06
-7.788143308023154736e+06
-7.862966641894042492e+06
-7.936544027834042907e+06
-8.008818224780872464e+06
-8.079731131957471371e+06
-8.149223788495540619e+06
-8.217236372990086675e+06
-8.283708202983363532e+06
-8.348577734378336929e+06
-8.411782560783371329e+06
-8.473259412791401148e+06
-8.532944157198309898e+06
-8.590771796166658401e+06
-8.646676466342389584e+06
-8.700591437933787704e+06
-8.752449113763913512e+06
-8.802181028310209513e+06
-8.849717846747845411e+06
-8.894989364016741514e+06
-8.937924503936037421e+06
-8.978451318394020200e+06
-9.016496986646205187e+06
-9.051987814759105444e+06
-9.084849235242202878e+06
-9.115005806915640831e+06
-9.142381215065941215e+06
-9.166898271946534514e+06
-9.188478917683973908e+06
-9.207044221654221416e+06
-9.222514384396508336e+06
-9.234808740134984255e+06
-9.243845759980544448e+06
-9.249543055886879563e+06
-9.251817385435894132e+06
-9.250584657528042793e+06
-9.245759939052864909e+06
-9.237257462614312768e+06
-9.224990635384261608e+06
-9.208872049155905843e+06
-9.188813491666555405e+06
-9.164725959256917238e+06
-9.136519670931264758e+06
-9.104104083880022168e+06
-9.067387910523235798e+06
-9.026279137130349874e+06
-8.980685044068709016e+06
-8.930512227730244398e+06
-8.875666624182865024e+06
-8.816053534590169787e+06
-8.751577652440279722e+06
-8.682143092622086406e+06
-8.607653422384800389e+06
-8.528011694214092568e+06
-8.443120480655329302e+06
-8.352881911111385562e+06
-8.257197710639358498e+06
-8.155969240767211653e+06
-8.049097542347759940e+06
-7.936483380463660695e+06
-7.818027291393401101e+06
-7.693629631644787267e+06
-7.563190629059107974e+06
-7.426610435985701159e+06
-7.283789184523137286e+06
-7.134627043819533661e+06
-6.979024279420645908e+06
-6.816881314650313929e+06
-6.648098794003510848e+06
-6.472577648527461104e+06
-6.290219163160997443e+06
-6.100925045996750705e+06
-5.904597499425211921e+06
-5.701139293114439584e+06
-5.490453838774287142e+06
-5.272445266649261117e+06
-5.047018503679521382e+06
-4.814079353264883161e+06
-4.573534576561942697e+06
-4.325291975239634514e+06
-4.069260475613541901e+06
-3.805350214074246120e+06
-3.533472623720086645e+06
-3.253540522099971306e+06
-2.965468199967302382e+06
-2.669171510941762477e+06
-2.364567961971778423e+06
-2.051576804486937355e+06
-1.730119126126541989e+06
-1.400117942927847616e+06
-1.061498291855352698e+06
-7.141873235508243088e+05
-3.581143951826066477e+05
6.788836727798240645e+03
3.805883236237986130e+05
7.633475324975923868e+05
1.155127353859575232e+06
1.555986010210859822e+06
1.965978965133656515e+06
2.385158833110764623e+06
2.813575290181264281e+06
3.251274985534697771e+06
3.698301454140577465e+06
4.154695030503965449e+06
4.620492763631202281e+06
5.095728333282671869e+06
5.580431967581883073e+06
6.074630362042084336e+06
6.578346600063249469e+06
7.091600074943579733e+06
7.614406413440778852e+06
8.146777400909379125e+06
8.688720908031284809e+06
9.240240819147467613e+06
9.801336962189525366e+06
1.037200504020079970e+07
1.095223656442770362e+07
1.154201878895324469e+07
1.214133464683647454e+07
1.275016268771380186e+07
1.336847701681083441e+07
1.399624723530686088e+07
1.463343838198840804e+07
1.528001087612363882e+07
1.593592046148494072e+07
1.660111815144324303e+07
1.727555017505392432e+07
1.795915792405065894e+07
1.865187790066027641e+07
1.935364166614875197e+07
2.006437579000598192e+07
2.078400179967537522e+07
2.151243613073337078e+07
2.224959007742410898e+07
2.299536974345591664e+07
2.374967599296835065e+07
2.451240440158170462e+07
2.528344520744466782e+07
2.606268326220032573e+07
2.684999798179522157e+07
2.764526329706060886e+07
2.844834760399913788e+07
2.925911371371310949e+07
3.007741880191278458e+07
3.090311435794591904e+07
3.173604613329231739e+07
3.257605408946985006e+07
3.342297234530079365e+07
3.427662912348937988e+07
3.513684669646316767e+07
3.600344133143264055e+07
3.687622323462563753e+07
3.775499649465590715e+07
3.863955902498793602e+07
3.952970250546252728e+07
4.042521232284998894e+07
4.132586751039963961e+07
4.223144068635588884e+07
4.314169799141389132e+07
4.405639902509129047e+07
4.497529678099584579e+07
4.589813758097296953e+07
4.682466100812274218e+07
4.775459983868336678e+07
4.868767997278821468e+07
4.962362036411577463e+07
5.056213294846659899e+07
5.150292257131791115e+07
5.244568691442549229e+07
5.339011642156285048e+07
5.433589422351002693e+07
5.528269606242740154e+07
5.623019021577203274e+07
5.717803741993546486e+07
5.812589079380273819e+07
5.907339576245093346e+07
6.002018998122203350e+07
6.096590326042044163e+07
6.191015749089896679e+07
6.285256657080829144e+07
6.379273633379447460e+07
6.473026447893869877e+07
6.566474050274264812e+07
6.659574563347005844e+07
6.752285276815927029e+07
6.844562641262137890e+07
6.936362262473511696e+07
7.027638896134221554e+07
7.118346442903339863e+07
7.208437943909466267e+07
7.297865576685810089e+07
7.386580651567029953e+07
7.474533608565485477e+07
7.561674014740598202e+07
7.647950562070786953e+07
7.733311065833044052e+07
7.817702463490712643e+07
7.901070814085483551e+07
7.983361298125123978e+07
8.064518217954146862e+07
8.144484998590731621e+07
8.223204189009821415e+07
8.300617463849711418e+07
8.376665625517547131e+07
8.451288606668114662e+07
8.524425473030149937e+07
8.596014426554691792e+07
8.665992808860933781e+07
8.734297104956257343e+07
8.800862947208774090e+07
8.865625119553041458e+07
8.928517561912560463e+07
8.989473374826228619e+07
9.048424824269962311e+07
9.105303346668922901e+07
9.160039554100298882e+07
9.212563239691507816e+07
9.262803383223783970e+07
9.310688156956088543e+07
9.356144931689071655e+07
9.399100283093023300e+07
9.439479998327517509e+07
9.477209082983589172e+07
9.512211768381786346e+07
9.544411519261658192e+07
9.573731041900241375e+07
9.600092292698955536e+07
9.623416487279796600e+07
9.643624110132670403e+07
9.660634924855935574e+07
9.674367985031628609e+07
9.684741645775365829e+07
9.691673575998198986e+07
9.695080771414363384e+07
9.694879568324744701e+07
9.690985658201193810e+07
9.683314103091883659e+07
9.671779351862525940e+07
9.656295257282698154e+07
9.636775093960916996e+07
9.613131577126610279e+07
9.585276882251787186e+07
9.553122665500187874e+07
9.516580084987294674e+07
9.475559822830533981e+07
9.429972107965481281e+07
9.379726739701092243e+07
9.324733111984920502e+07
9.264900238347983360e+07
9.200136777498602867e+07
9.130351059534800053e+07
9.055451112745606899e+07
8.975344690973114967e+07
8.889939301509177685e+07
8.799142233503496647e+07
8.702860586863291264e+07
8.601001301628983021e+07
8.493471187815260887e+07
8.380176955712163448e+07
8.261025246646320820e+07
8.135922664208364487e+07
8.004775805958497524e+07
7.867491295628035069e+07
7.723975815840458870e+07
7.574136141381013393e+07
7.417879173049032688e+07
7.255111972132146358e+07
7.085741795546340942e+07
6.909676131690120697e+07
6.726822737064814568e+07
6.537089673716342449e+07
6.340385347556471825e+07
6.136618547623860836e+07
5.925698486347055435e+07
5.707534840873169899e+07
5.482037795527231693e+07
5.249118085468196869e+07
5.008687041608327627e+07
4.760656636862736940e+07
4.504939533795523643e+07
4.241449133727836609e+07
3.970099627371388674e+07
3.690806047048330307e+07
3.403484320555132627e+07
3.108051326724195480e+07
2.804424952732515335e+07
2.492524153201925755e+07
2.172269011130252108e+07
1.843580800687259063e+07
1.506382051903485879e+07
1.160596617273959145e+07
8.061497402924861759e+06
4.429681259257759899e+06
7.098001303010176634e+05
-3.098847512933645863e+06
-6.996946354150339961e+06
-1.098516344982295111e+07
-1.506414742837465182e+07
-1.923452767078361288e+07
-2.349691347297796607e+07
-2.785189319044345617e+07
-3.230003336552536488e+07
-3.684187783796131611e+07
-4.147794683923345804e+07
-4.620873607137656212e+07
-5.103471577092295885e+07
-5.595632975870627165e+07
-6.097399447628378868e+07
-6.608809800977098942e+07
-7.129899910190987587e+07
-7.660702615321397781e+07
-8.201247621304702759e+07
-8.751561396150112152e+07
-9.311667068294513226e+07
-9.881584323211574554e+07
-1.046132929936213493e+08
-1.105091448357244730e+08
-1.165034860592660904e+08
-1.225963653425931931e+08
-1.287877916833460331e+08
-1.350777333379514217e+08
-1.414661167596540451e+08
-1.479528255358958244e+08
-1.545376993258247375e+08
-1.612205327986791134e+08
-1.680010745737526417e+08
-1.748790261626029015e+08
-1.818540409141280651e+08
-1.889257229631006718e+08
-1.960936261827170849e+08
-2.033572531416993141e+08
-2.107160540664732456e+08
-2.181694258089368343e+08
-2.257167108203253746e+08
-2.333571961316742897e+08
-2.410901123413748741e+08
-2.489146326103048325e+08
-2.568298716649866104e+08
-2.648348848091826439e+08
-2.729286669442796707e+08
-2.811101515987539291e+08
-2.893782099669489861e+08
-2.977316499573421478e+08
-3.061692152504224777e+08
-3.146895843662414551e+08
-3.232913697416300774e+08
-3.319731168170075417e+08
-3.407333031326327324e+08
-3.495703374340772629e+08
-3.584825587866272926e+08
-3.674682356982560158e+08
-3.765255652507634163e+08
-3.856526722386546135e+08
-3.948476083153228760e+08
-4.041083511461195946e+08
-4.134328035679402351e+08
-4.228187927550129890e+08
-4.322640693906388283e+08
-4.417663068446912766e+08
-4.513231003567476273e+08
-4.609319662247867584e+08
-4.705903409994525909e+08
-4.802955806839466095e+08
-4.900449599396944046e+08
-4.998356712980346680e+08
-5.096648243782873154e+08
-5.195294451126766205e+08
-5.294264749787168503e+08
-5.393527702398052216e+08
-5.493051011949090958e+08
-5.592801514383878708e+08
-5.692745171311550140e+08
-5.792847062845506668e+08
-5.893071380584554672e+08
-5.993381420753355026e+08
-6.093739577520589828e+08
-6.194107336514739990e+08
-6.294445268558835983e+08
-6.394713023646888733e+08
-6.494869325186033249e+08
-6.594871964529800415e+08
-6.694677795829315186e+08
-6.794242731230554581e+08
-6.893521736447000504e+08
-6.992468826738061905e+08
-7.091037063324661255e+08
-7.189178550274477005e+08
-7.286844431890392303e+08
-7.383984890636701584e+08
-7.480549145638484955e+08
-7.576485451790151596e+08
-7.671741099509544373e+08
-7.766262415174112320e+08
-7.859994762275352478e+08
-7.952882543327102661e+08
-8.044869202562370300e+08
-8.135897229452266693e+08
-8.225908163079252243e+08
-8.314842597394943237e+08
-8.402640187390174866e+08
-8.489239656201782227e+08
-8.574578803176507950e+08
-8.658594512907705307e+08
-8.741222765255174637e+08
-8.822398646352796555e+08
-8.902056360602626801e+08
-8.980129243647842407e+08
-9.056549776310157776e+08
-9.131249599470329285e+08
-9.204159529863243103e+08
-9.275209576751785278e+08
-9.344328959436264038e+08
-9.411446125548572540e+08
-9.476488770072898865e+08
-9.539383855027351379e+08
-9.600057629733581543e+08
-9.658435651594276428e+08
-9.714442807291336060e+08
-9.768003334310684204e+08
-9.819040842693080902e+08
-9.867478336904106140e+08
-9.913238237710857391e+08
-9.956242403947811127e+08
-9.996412154050140381e+08
-1.003366828722976685e+09
-1.006793110416770935e+09
-1.009912042709579468e+09
-1.012715561914167404e+09
-1.015195560281341553e+09
-1.017343887750371933e+09
-1.019152353589921951e+09
-1.020612727918720245e+09
-1.021716743096010208e+09
-1.022456094972759247e+09
-1.022822443995719910e+09
-1.022807416157699585e+09
-1.022402603788814545e+09
-1.021599566185056686e+09
-1.020389830072149277e+09
-1.018764889904405594e+09
-1.016716208000129700e+09
-1.014235214516983032e+09
-1.011313307272638321e+09
-1.007941851417963028e+09
-1.004112178971904755e+09
-9.998155882291526794e+08
-9.950433430535068512e+08
-9.897866720716876984e+08
-9.840367677840328217e+08
-9.777847856101417542e+08
-9.710218428890285492e+08
-9.637390178547191620e+08
-9.559273486094532013e+08
-9.475778321177120209e+08
-9.386814232451992035e+08
-9.292290338676280975e+08
-9.192115320747280121e+08
-9.086197414952659607e+08
-8.974444407690601349e+08
-8.856763631919689178e+08
-8.733061965596828461e+08
-8.603245832358303070e+08
-8.467221204694395065e+08
-8.324893609861583710e+08
-8.176168138768024445e+08
-8.020949458057622910e+08
-7.859141825605840683e+08
-7.690649109626607895e+08
-7.515374811574125290e+08
-7.333222093006286621e+08
-7.144093806558065414e+08
-6.947892531153841019e+08
-6.744520611567163467e+08
-6.533880202414989471e+08
-6.315873316651163101e+08
-6.090401878600988388e+08
-5.857367781555576324e+08
-5.616672949921360016e+08
-5.368219405896959305e+08
-5.111909340626420975e+08
-4.847645189755182266e+08
-4.575329713293170929e+08
-4.294866079668464661e+08
-4.006157953834967613e+08
-3.709109589278712273e+08
-3.403625923749756813e+08
-3.089612678530440331e+08
-2.766976461036109924e+08
-2.435624870531430244e+08
-2.095466606734046936e+08
-1.746411581067795753e+08
-1.388371030319931507e+08
-1.021257632450985909e+08
-6.449856243018448353e+07
-2.594709209403944388e+07
1.353687636104520783e+07
5.396137945204020292e+07
9.533424934294331074e+07
1.376631015105535984e+08
1.809553223726975918e+08
2.252180569026486874e+08
2.704581962526545525e+08
3.166823654085450172e+08
3.638969108963460922e+08
4.121078885606799126e+08
4.613210514334993362e+08
5.115418377104024887e+08
5.627753588504142761e+08
6.150263878137340546e+08
6.682993474505424500e+08
7.225982990525369644e+08
7.779269310774192810e+08
8.342885480551042557e+08
8.916860596829643250e+08
9.501219701159782410e+08
1.009598367456216812e+09
1.070116913444683075e+09
1.131678833357126236e+09
1.194284906104093552e+09
1.257935454534168243e+09
1.322630335938085556e+09
1.388368932750236511e+09
1.455150143442970276e+09
1.522972373608085632e+09
1.591833527218927383e+09
1.661730998065530777e+09
1.732661661354324341e+09
1.804621865463027954e+09
1.877607423840545654e+09
1.951613607040863037e+09
2.026635134879219055e+09
2.102666168698177338e+09
2.179700303730686188e+09
2.257730561546798706e+09
2.336749382570384979e+09
2.416748618651920319e+09
2.497719525683277130e+09
2.579652756240402222e+09
2.662538352239837646e+09
2.746365737595264435e+09
2.831123710860588074e+09
2.916800437846515656e+09
3.003383444198169708e+09
3.090859607922061920e+09
3.179215151851615906e+09
3.268435636041492462e+09
3.358505950082157135e+09
3.449410305327453613e+09
3.541132227029399872e+09
3.633654546375808716e+09
3.726959392427604675e+09
3.821028183953819275e+09
3.915841621163307190e+09
4.011379677333274841e+09
4.107621590335784912e+09
4.204545854064407349e+09
4.302130209764083862e+09
4.400351637268188477e+09
4.499186346147750854e+09
4.598609766778999329e+09
4.698596541336677551e+09
4.799120514721862793e+09
4.900154725434318542e+09
5.001671396400672913e+09
5.103641925770889282e+09
5.206036877696640015e+09
5.308825973106407166e+09
5.411978080493522644e+09
5.515461206734809875e+09
5.619242487958862305e+09
5.723288180484199524e+09
5.827563651848556519e+09
5.932033371951652527e+09
6.036660904334709167e+09
6.141408897620643616e+09
6.246239077139427185e+09
6.351112236763557434e+09
6.455988230979187012e+09
6.560825967219161987e+09
6.665583398485115051e+09
6.770217516286888123e+09
6.874684343928825378e+09
6.978938930174011230e+09
7.082935343319053650e+09
7.186626665713577271e+09
7.289964988759963989e+09
7.392901408430130005e+09
7.495386021337280273e+09
7.597367921401641846e+09
7.698795197150024414e+09
7.799614929689743042e+09
7.899773191398056030e+09
7.999215045368804932e+09
8.097884545658203125e+09
8.195724738371643066e+09
8.292677663632781982e+09
8.388684358475402832e+09
8.483684860697341919e+09
8.577618213714294434e+09
8.670422472449401855e+09
8.762034710292205811e+09
8.852391027157684326e+09
8.941426558672592163e+09
9.029075486512313843e+09
9.115271049906799316e+09
9.199945558328735352e+09
9.283030405371185303e+09
9.364456083815536499e+09
9.444152201883575439e+09
9.522047500659896851e+09
9.598069872662841797e+09
9.672146381533828735e+09
9.744203282806518555e+09
9.814166045708831787e+09
9.881959375942672729e+09
9.947507239378662109e+09
1.001073288659637451e+10
1.007155887819404602e+10
1.012990711078529358e+10
1.018569884359428406e+10
1.023885472555511475e+10
1.028929482281582642e+10
1.033693864654254150e+10
1.038170518091458130e+10
1.042351291119749451e+10
1.046227985177804565e+10
1.049792357404309082e+10
1.053036123398266602e+10
1.055950959939665222e+10
1.058528507658398438e+10
1.060760373639350891e+10
1.062638133951669312e+10
1.064153336090464783e+10
1.065297501319563293e+10
1.066062126904418945e+10
1.066438688224966431e+10
1.066418640758995056e+10
1.065993421927601624e+10
1.065154452795393372e+10
1.063893139619340515e+10
1.062200875241529846e+10
1.060069040322505188e+10
1.057489004413372803e+10
1.054452126866374207e+10
1.050949757585180664e+10
1.046973237617726135e+10
1.042513899595928955e+10
1.037563068028167725e+10
1.032112059451860046e+10
1.026152182454916382e+10
1.019674737576239014e+10
1.012671017096763611e+10
1.005132304733808899e+10
9.970498752527008057e+09
9.884149940107513428e+09
9.792189164497406006e+09
9.694528875540206909e+09
9.591081412922241211e+09
9.481759000613372803e+09
9.366473741525726318e+09
9.245137612590682983e+09
9.117662460459228516e+09
8.983959998034255981e+09
8.843941802045486450e+09
8.697519311878326416e+09
8.544603829867355347e+09
8.385106523263305664e+09
8.218938428079345703e+09
8.046010455018096924e+09
7.866233397675109863e+09
7.679517943208007812e+09
7.485774685653060913e+09
7.284914142062728882e+09
7.076846771628860474e+09
6.861482997946655273e+09
6.638733234564201355e+09
6.408507913951461792e+09
6.170717520011329651e+09
5.925272624243957520e+09
5.672083925663932800e+09
5.411062294558197021e+09
5.142118820160758972e+09
4.865164862308341980e+09
4.580112107128837585e+09
4.286872626801910400e+09
3.985358943418449402e+09
3.675484096952812195e+09
3.357161717349044800e+09
3.030306100709411621e+09
2.694832289560611725e+09
2.350656157159969330e+09
1.997694495790790558e+09
1.635865108982925415e+09
1.265086907581407547e+09
8.852800095729179382e+08
4.963658435667800903e+08
9.826725581437873840e+07
-3.090913793616204262e+08
-7.257840458690171242e+08
-1.151882969031260490e+09
-1.587458495819753647e+09
-2.032578972307634354e+09
-2.487310618529464722e+09
-2.951717400940692902e+09
-3.425860902679481506e+09
-3.909800191841453552e+09
-4.403591687985076904e+09
-4.907289027091758728e+09
-5.420942925210220337e+09
-5.944601041019363403e+09
-6.478307837547531128e+09
-7.022104443288833618e+09
-7.576028512959060669e+09
-8.140114088134735107e+09
-8.714391458019058228e+09
-9.298887020577651978e+09
-9.893623144285278320e+09
-1.049861803072195435e+10
-1.111388557825326538e+10
-1.173943524702514648e+10
-1.237527192549800110e+10
-1.302139579873851013e+10
-1.367780221867980957e+10
-1.434448157655195618e+10
-1.502141917767474365e+10
-1.570859511879382324e+10
-1.640598416812860107e+10
-1.711355564828649902e+10
-1.783127332218310547e+10
-1.855909528209118652e+10
-1.929697384192376709e+10
-2.004485543283804321e+10
-2.080268050222805786e+10
-2.157038341615475464e+10
-2.234789236524255371e+10
-2.313512927405191040e+10
-2.393200971391732788e+10
-2.473844281922000122e+10
-2.555433120704373169e+10
-2.637957090014190674e+10
-2.721405125312304688e+10
-2.805765488174307251e+10
-2.891025759517425537e+10
-2.977172833110369873e+10
-3.064192909349792480e+10
-3.152071489285552979e+10
-3.240793368875701904e+10
-3.330342633450952148e+10
-3.420702652367425537e+10
-3.511856073825683594e+10
-3.603784819833465576e+10
-3.696470081289117432e+10
-3.789892313162396240e+10
-3.884031229749194336e+10
-3.978865799976800537e+10
-4.074374242736590576e+10
-4.170534022221527100e+10
-4.267321843246484375e+10
-4.364713646530255127e+10
-4.462684603919140625e+10
-4.561209113533148193e+10
-4.660260794817065430e+10
-4.759812483480035400e+10
-4.859836226308679199e+10
-4.960303275840264893e+10
-5.061184084884002686e+10
-5.162448300880346680e+10
-5.264064760090258789e+10
-5.366001481608837891e+10
-5.468225661200476074e+10
-5.570703664955694580e+10
-5.673401022772857666e+10
-5.776282421670996094e+10
-5.879311698942858887e+10
-5.982451835160180664e+10
-6.085664947046008301e+10
-6.188912280231677246e+10
-6.292154201918652344e+10
-6.395350193467956543e+10
-6.498458842942187500e+10
-6.601437837627172852e+10
-6.704243956562255859e+10
-6.806833063110034180e+10
-6.909160097598083496e+10
-7.011179070066821289e+10
-7.112843053159130859e+10
-7.214104175188781738e+10
-7.314913613426013184e+10
-7.415221587640039062e+10
-7.514977353939721680e+10
-7.614129198954895020e+10
-7.712624434401696777e+10
-7.810409392075769043e+10
-7.907429419317395020e+10
-8.003628874992578125e+10
-8.098951126033569336e+10
-8.193338544581274414e+10
-8.286732505770532227e+10
-8.379073386197631836e+10
-8.470300563107861328e+10
-8.560352414338989258e+10
-8.649166319054382324e+10
-8.736678659296960449e+10
-8.822824822392492676e+10
-8.907539204228051758e+10
-8.990755213428820801e+10
-9.072405276453808594e+10
-9.152420843628344727e+10
-9.230732396128601074e+10
-9.307269453930725098e+10
-9.381960584734265137e+10
-9.454733413866455078e+10
-9.525514635170800781e+10
-9.594230022880480957e+10
-9.660804444474304199e+10
-9.725161874510449219e+10
-9.787225409430761719e+10
-9.846917283325671387e+10
-9.904158884646667480e+10
-9.958870773850012207e+10
-1.001097270195179443e+11
-1.006038362997053223e+11
-1.010702174922958984e+11
-1.015080450248771973e+11
-1.019164860586247559e+11
-1.022947007150803223e+11
-1.026418423100571289e+11
-1.029570575942244873e+11
-1.032394869998952637e+11
-1.034882648935157471e+11
-1.037025198333319092e+11
-1.038813748316820068e+11
-1.040239476213414307e+11
-1.041293509253239746e+11
-1.041966927295268555e+11
-1.042250765575950928e+11
-1.042136017473764648e+11
-1.041613637283391113e+11
-1.040674542993277588e+11
-1.039309619060399170e+11
-1.037509719176137695e+11
-1.035265669017314453e+11
-1.032568268976594238e+11
-1.029408296866728516e+11
-1.025776510593449707e+11
-1.021663650792272949e+11
-1.017060443425037842e+11
-1.011957602332714844e+11
-1.006345831741800537e+11
-1.000215828722508545e+11
-9.935582855978698730e+10
-9.863638923037548828e+10
-9.786233387006921387e+10
-9.703273168391772461e+10
-9.614665231809375000e+10
-9.520316607793371582e+10
-9.420134414227868652e+10
-9.314025877457055664e+10
-9.201898353122302246e+10
-9.083659346784667969e+10
-8.959216534396411133e+10
-8.828477782690490723e+10
-8.691351169562316895e+10
-8.547745004522802734e+10
-8.397567849306530762e+10
-8.240728538723278809e+10
-8.077136201844970703e+10
-7.906700283623266602e+10
-7.729330567035290527e+10
-7.544937195856408691e+10
-7.353430698159533691e+10
-7.154722010640002441e+10
-6.948722503863806152e+10
-6.735344008535144043e+10
-6.514498842876904297e+10
-6.286099841214904785e+10
-6.050060383853552246e+10
-5.806294428327185059e+10
-5.554716542107629395e+10
-5.295241936844458008e+10
-5.027786504210144043e+10
-4.752266853417846680e+10
-4.468600350474884033e+10
-4.176705159230212402e+10
-3.876500284269720459e+10
-3.567905615708782959e+10
-3.250841975927166748e+10
-2.925231168287152100e+10
-2.590996027871539307e+10
-2.248060474273995972e+10
-1.896349566469918823e+10
-1.535789559791625977e+10
-1.166307965027337646e+10
-7.878336096590255737e+09
-4.002967012499191284e+09
-3.628892988180541992e+07
4.022366486109200954e+09
8.173651738461017609e+09
1.241820277820268250e+10
1.675663826289649963e+10
2.118955879385705566e+10
2.571754613227511597e+10
3.034116239446240234e+10
3.506094922647161865e+10
3.987742695838366699e+10
4.479109373859014893e+10
4.980242464843420410e+10
5.491187079760656738e+10
6.011985840072741699e+10
6.542678783557617188e+10
7.083303268346105957e+10
7.633893875224792480e+10
8.194482308259301758e+10
8.765097293794787598e+10
9.345764477892724609e+10
9.936506322265209961e+10
1.053734199876982422e+11
1.114828728252972412e+11
1.176935444374523926e+11
1.240055213826494141e+11
1.304188529698608398e+11
1.369335501415668945e+11
1.435495843465400391e+11
1.502668864031650391e+11
1.570853453540932617e+11
1.640048073130568848e+11
1.710250743046948242e+11
1.781459030982687988e+11
1.853670040361745605e+11
1.926880398581728516e+11
2.001086245222702637e+11
2.076283220231696777e+11
2.152466452091870117e+11
2.229630545984985352e+11
2.307769571955456543e+11
2.386877053083862305e+11
2.466945953677397461e+11
2.547968667484331055e+11
2.629937005939223633e+11
2.712842186445429688e+11
2.796674820701289062e+11
2.881424903076333008e+11
2.967081799043745117e+11
3.053634233675292969e+11
3.141070280204956055e+11
3.229377348667573242e+11
3.318542174619072266e+11
3.408550807945283203e+11
3.499388601766884766e+11
3.591040201448725586e+11
3.683489533722519531e+11
3.776719795932705078e+11
3.870713445416088867e+11
3.965452189026752930e+11
4.060916972818471680e+11
4.157087971897485352e+11
4.253944580458857422e+11
4.351465402019760742e+11
4.449628239862919922e+11
4.548410087703256836e+11
4.647787120590605469e+11
4.747734686061308594e+11
4.848227295551347656e+11
4.949238616083369141e+11
5.050741462239580078e+11
5.152707788431914062e+11
5.255108681480244141e+11
5.357914353508603516e+11
5.461094135168466797e+11
5.564616469197167969e+11
5.668448904318408203e+11
5.772558089490654297e+11
5.876909768508095703e+11
5.981468774957705078e+11
6.086199027534755859e+11
6.191063525717871094e+11
6.296024345803251953e+11
6.401042637296201172e+11
6.506078619656425781e+11
6.611091579391835938e+11
6.716039867493681641e+11
6.820880897204023438e+11
6.925571142104541016e+11
7.030066134513720703e+11
7.134320464177675781e+11
7.238287777238261719e+11
7.341920775460625000e+11
7.445171215700781250e+11
7.547989909592421875e+11
7.650326723431074219e+11
7.752130578233066406e+11
7.853349449946386719e+11
7.953930369790419922e+11
8.053819424701738281e+11
8.152961757863486328e+11
8.251301569296767578e+11
8.348782116493828125e+11
8.445345715074843750e+11
8.540933739452480469e+11
8.635486623490898438e+11
8.728943861148564453e+11
8.821244007097011719e+11
8.912324677310175781e+11
9.002122549620957031e+11
9.090573364243242188e+11
9.177611924259140625e+11
9.263172096072851562e+11
9.347186809834218750e+11
9.429588059836777344e+11
9.510306904896914062e+11
9.589273468722832031e+11
9.666416940284433594e+11
9.741665574198027344e+11
9.814946691143164062e+11
9.886186678332871094e+11
9.955310990062851562e+11
1.002224414836980469e+12
1.008690974383388672e+12
1.014923043656500000e+12
1.020912795741669922e+12
1.026652310947515625e+12
1.032133576987355469e+12
1.037348489198466797e+12
1.042288850804642578e+12
1.046946373227664062e+12
1.051312676453347656e+12
1.055379289457802734e+12
1.059137650699462891e+12
1.062579108682353516e+12
1.065694922595908203e+12
1.068476263036443359e+12
1.070914212815119141e+12
1.072999767856884766e+12
1.074723838194552734e+12
1.076077249061781250e+12
1.077050742088373047e+12
1.077634976600966797e+12
1.077820531031876953e+12
1.077597904438546875e+12
1.076957518135826172e+12
1.075889717443035156e+12
1.074384773547529297e+12
1.072432885486244141e+12
1.070024182246482422e+12
1.067148724987009766e+12
1.063796509380357422e+12
1.059957468077089844e+12
1.055621473292718750e+12
1.050778339517939453e+12
1.045417826352917969e+12
1.039529641466458984e+12
1.033103443681052734e+12
1.026128846185029297e+12
1.018595419873328125e+12
1.010492696818687500e+12
1.001810173875388672e+12
9.925373164180371094e+11
9.826635622182109375e+11
9.721783254621621094e+11
9.610710009130742188e+11
9.493309682216503906e+11
9.369475963890117188e+11
9.239102483860390625e+11
9.102082859333613281e+11
8.958310744461992188e+11
8.807679881482089844e+11
8.650084153583496094e+11
8.485417639546357422e+11
8.313574670184384766e+11
8.134449886627568359e+11
7.947938300476044922e+11
7.753935355853203125e+11
7.552336993382216797e+11
7.343039716105546875e+11
7.125940657361796875e+11
6.900937650628691406e+11
6.667929301334638672e+11
6.426815060634638672e+11
6.177495301138964844e+11
5.919871394575244141e+11
5.653845791356464844e+11
5.379322102018876953e+11
5.096205180484892578e+11
4.804401209097050781e+11
4.503817785359902344e+11
4.194364010317382812e+11
3.875950578483886719e+11
3.548489869237871094e+11
3.211896039577514648e+11
2.866085118128808594e+11
2.510975100287709961e+11
2.146486044369863281e+11
1.772540168633935547e+11
1.389061949037763672e+11
9.959782175804272461e+10
5.932182610781347656e+10
1.807139202175256348e+10
-2.416003112732955933e+10
-6.737871874979220581e+10
-1.115906611472086182e+11
-1.568015536574479980e+11
-2.030167868529943848e+11
-2.502414368084780273e+11
-2.984802554530561523e+11
-3.477376610228247070e+11
-3.980177286278784180e+11
-4.493241809479638672e+11
-5.016603790698906250e+11
-5.550293134789873047e+11
-6.094335952159296875e+11
-6.648754472092324219e+11
-7.213566957926035156e+11
-7.788787624152187500e+11
-8.374426555517939453e+11
-8.970489628181250000e+11
-9.576978432965693359e+11
-1.019389020074775391e+12
-1.082121772999832031e+12
-1.145894931648894531e+12
-1.210706868516263672e+12
-1.276555492415820312e+12
-1.343438242096636719e+12
-1.411352080068507812e+12
-1.480293486633074219e+12
-1.550258454115156250e+12
-1.621242481287876953e+12
-1.693240567984130859e+12
-1.766247209885986328e+12
-1.840256393482683594e+12
-1.915261591187007812e+12
-1.991255756598937500e+12
-2.068231319904636719e+12
-2.146180183398074219e+12
-2.225093717111863281e+12
-2.304962754543351562e+12
-2.385777588461519531e+12
-2.467527966779925781e+12
-2.550203088480753906e+12
-2.633791599574917969e+12
-2.718281589083179688e+12
-2.803660585023289062e+12
-2.889915550388355469e+12
-2.977032879101945312e+12
-3.064998391935769531e+12
-3.153797332376320312e+12
-3.243414362427410156e+12
-3.333833558336289062e+12
-3.425038406231777344e+12
-3.517011797663757812e+12
-3.609736025034390625e+12
-3.703192776912515625e+12
-3.797363133223976562e+12
-3.892227560312062500e+12
-3.987765905863882812e+12
-4.083957393700273438e+12
-4.180780618428710938e+12
-4.278213539960664062e+12
-4.376233477896750000e+12
-4.474817105784953125e+12
-4.573940445258953125e+12
-4.673578860065281250e+12
-4.773707049989609375e+12
-4.874299044694101562e+12
-4.975328197479437500e+12
-5.076767178986867188e+12
-5.178587970857429688e+12
-5.280761859367171875e+12
-5.383259429058632812e+12
-5.486050556389984375e+12
-5.589104403424187500e+12
-5.692389411581390625e+12
-5.795873295478554688e+12
-5.899523036881046875e+12
-6.003304878791562500e+12
-6.107184319702281250e+12
-6.211126108036476562e+12
-6.315094236805781250e+12
-6.419051938509062500e+12
-6.522961680298484375e+12
-6.626785159437640625e+12
-6.730483299075679688e+12
-6.834016244360304688e+12
-6.937343358911484375e+12
-7.040423221676859375e+12
-7.143213624188992188e+12
-7.245671568243789062e+12
-7.347753264018609375e+12
-7.449414128647421875e+12
-7.550608785268937500e+12
-7.651291062562078125e+12
-7.751413994781500000e+12
-7.850929822304203125e+12
-7.949789992696500000e+12
-8.047945162308500000e+12
-8.145345198400671875e+12
-8.241939181804187500e+12
-8.337675410113687500e+12
-8.432501401407843750e+12
-8.526363898489546875e+12
-8.619208873633734375e+12
-8.710981533826734375e+12
-8.801626326476656250e+12
-8.891086945569781250e+12
-8.979306338243125000e+12
-9.066226711738703125e+12
-9.151789540700531250e+12
-9.235935574770937500e+12
-9.318604846438468750e+12
-9.399736679085734375e+12
-9.479269695182031250e+12
-9.557141824562718750e+12
-9.633290312735187500e+12
-9.707651729150140625e+12
-9.780161975376500000e+12
-9.850756293118734375e+12
-9.919369272016562500e+12
-9.985934857169078125e+12
-1.005038635632834375e+13
-1.011265644671132812e+13
-1.017267718138339062e+13
-1.023037999517085938e+13
-1.028569571006470312e+13
-1.033855454008201562e+13
-1.038888609555695312e+13
-1.043661938683814062e+13
-1.048168282737553125e+13
-1.052400423618607812e+13
-1.056351083969403125e+13
-1.060012927294842188e+13
-1.063378558022718750e+13
-1.066440521504407812e+13
-1.069191303958089062e+13
-1.071623332357409375e+13
-1.073728974269162500e+13
-1.075500537644210938e+13
-1.076930270566479688e+13
-1.078010360965390625e+13
-1.078732936297606250e+13
-1.079090063204420312e+13
-1.079073747151575000e+13
-1.078675932058679688e+13
-1.077888499925770312e+13
-1.076703270464881250e+13
-1.075112000744762500e+13
-1.073106384857057812e+13
-1.070678053612414062e+13
-1.067818574275098438e+13
-1.064519450344748438e+13
-1.060772121393843750e+13
-1.056567962969390625e+13
-1.051898286567189062e+13
-1.046754339686921875e+13
-1.041127305976160938e+13
-1.035008305471209375e+13
-1.028388394942539062e+13
-1.021258568352468750e+13
-1.013609757432646875e+13
-1.005432832388893750e+13
-9.967186027410000000e+12
-9.874578183051906250e+12
-9.776411703271187500e+12
-9.672592927734578125e+12
-9.563027637903781250e+12
-9.447621073374343750e+12
-9.326277950056296875e+12
-9.198902480286312500e+12
-9.065398394962734375e+12
-8.925668967796140625e+12
-8.779617041768875000e+12
-8.627145057897109375e+12
-8.468155086388484375e+12
-8.302548860287281250e+12
-8.130227811697250000e+12
-7.951093110669781250e+12
-7.765045706841937500e+12
-7.571986373904750000e+12
-7.371815756976984375e+12
-7.164434422953171875e+12
-6.949742913887171875e+12
-6.727641803464062500e+12
-6.498031756603937500e+12
-6.260813592231218750e+12
-6.015888349232351562e+12
-5.763157355613539062e+12
-5.502522300858648438e+12
-5.233885311475570312e+12
-4.957149029707375000e+12
-4.672216695372687500e+12
-4.378992230787781250e+12
-4.077380328711031250e+12
-3.767286543238601562e+12
-3.448617383568570312e+12
-3.121280410539273438e+12
-2.785184335836718750e+12
-2.440239123755425781e+12
-2.086356095387167969e+12
-1.723448035102925781e+12
-1.351429299184937500e+12
-9.702159264580800781e+11
-5.797257507629433594e+11
-1.798785151069423828e+11
2.294040126753693848e+11
6.481979229259863281e+11
1.076577046007849609e+12
1.514612833169335938e+12
1.962374236610054688e+12
2.419927588930171875e+12
2.887336482145628906e+12
3.364661646450945312e+12
3.851960828909812500e+12
4.349288672251382812e+12
4.856696593947109375e+12
5.374232665739218750e+12
5.901941493787375000e+12
6.439864099594859375e+12
6.988037801869679688e+12
7.546496099469351562e+12
8.115268555570671875e+12
8.694380683197937500e+12
9.283853832234656250e+12
9.883705078034812500e+12
1.049394711174035938e+13
1.111458813240159375e+13
1.174563174098668750e+13
1.238707683635570312e+13
1.303891751326334375e+13
1.370114296244346875e+13
1.437373737281714062e+13
1.505667983585467188e+13
1.574994425211096875e+13
1.645349923994262500e+13
1.716730804640493750e+13
1.789132846031696875e+13
1.862551272747275000e+13
1.936980746796678125e+13
2.012415359559246875e+13
2.088848623926296875e+13
2.166273466639456250e+13
2.244682220818353125e+13
2.324066618669831250e+13
2.404417784369981250e+13
2.485726227109443750e+13
2.567981834291725000e+13
2.651173864873600000e+13
2.735290942836131250e+13
2.820321050774503125e+13
2.906251523594756250e+13
2.993069042305562500e+13
3.080759627893518750e+13
3.169308635270950000e+13
3.258700747285962500e+13
3.348919968785468750e+13
3.439949620723075000e+13
3.531772334304962500e+13
3.624370045168081250e+13
3.717723987585993750e+13
3.811814688698537500e+13
3.906621962762143750e+13
4.002124905418106250e+13
4.098301887976350000e+13
4.195130551712318750e+13
4.292587802174637500e+13
4.390649803501287500e+13
4.489291972742181250e+13
4.588488974186181250e+13
4.688214713690943750e+13
4.788442333014431250e+13
4.889144204147343750e+13
4.990291923646031250e+13
5.091856306965487500e+13
5.193807382791862500e+13
5.296114387373725000e+13
5.398745758851025000e+13
5.501669131580662500e+13
5.604851330457806250e+13
5.708258365232662500e+13
5.811855424823243750e+13
5.915606871625712500e+13
6.019476235824937500e+13
6.123426209708937500e+13
6.227418641991800000e+13
6.331414532150362500e+13
6.435374024780475000e+13
6.539256403979187500e+13
6.643020087759775000e+13
6.746622622507350000e+13
6.850020677484037500e+13
6.953170039394362500e+13
7.056025607023625000e+13
7.158541385964462500e+13
7.260670483449400000e+13
7.362365103310012500e+13
7.463576541086187500e+13
7.564255179311737500e+13
7.664350483005350000e+13
7.763810995398675000e+13
7.862584333936137500e+13
7.960617186583737500e+13
8.057855308486637500e+13
8.154243519017575000e+13
8.249725699260150000e+13
8.344244789972675000e+13
8.437742790079487500e+13
8.530160755737250000e+13
8.621438800023962500e+13
8.711516093298100000e+13
8.800330864274162500e+13
8.887820401859062500e+13
8.973921057791287500e+13
9.058568250121775000e+13
9.141696467571812500e+13
9.223239274798925000e+13
9.303129318596850000e+13
9.381298335050150000e+13
9.457677157657787500e+13
9.532195726433125000e+13
9.604783097980762500e+13
9.675367456543512500e+13
9.743876126006037500e+13
9.810235582835275000e+13
9.874371469931750000e+13
9.936208611360212500e+13
9.995671027922950000e+13
1.005268195353461250e+14
1.010716385235343750e+14
1.015903843662031250e+14
1.020822668515427500e+14
1.025464886245057500e+14
1.029822453832520000e+14
1.033887260804785000e+14
1.037651131290367500e+14
1.041105826112291250e+14
1.044243044911720000e+14
1.047054428296190000e+14
1.049531560006532500e+14
1.051665969096782500e+14
1.053449132121650000e+14
1.054872475326477500e+14
1.055927376835048750e+14
1.056605168831170000e+14
1.056897139730606250e+14
1.056794536340675000e+14
1.056288566005552500e+14
1.055370398736108750e+14
1.054031169323836250e+14
1.052261979439177500e+14
1.050053899715276250e+14
1.047397971818865000e+14
1.044285210510663750e+14
1.040706605698276250e+14
1.036653124485122500e+14
1.032115713219428750e+14
1.027085299547748750e+14
1.021552794477882500e+14
1.015509094456392500e+14
1.008945083466142500e+14
1.001851635149428750e+14
9.942196149623850000e+13
9.860398823664137500e+13
9.773032930624475000e+13
9.680007012738237500e+13
9.581229620834737500e+13
9.476609338309750000e+13
9.366054805748337500e+13
9.249474746251962500e+13
9.126777991520175000e+13
8.997873508735187500e+13
8.862670428295587500e+13
8.721078072443537500e+13
8.573005984828162500e+13
8.418363961046012500e+13
8.257062080197200000e+13
8.089010737493137500e+13
7.914120677948812500e+13
7.732303031189425000e+13
7.543469347398087500e+13
7.347531634428150000e+13
7.144402396100800000e+13
6.933994671705925000e+13
6.716222076721887500e+13
6.490998844767862500e+13
6.258239870800750000e+13
6.017860755567412500e+13
5.769777851321987500e+13
5.513908308817125000e+13
5.250170125577193750e+13
4.978482195460687500e+13
4.698764359518162500e+13
4.410937458151218750e+13
4.114923384577318750e+13
3.810645139604587500e+13
3.498026887720143750e+13
3.176994014494956250e+13
2.847473185307556250e+13
2.509392405388068750e+13
2.162681081182996875e+13
1.807270083039965625e+13
1.443091809210200000e+13
1.070080251164887500e+13
6.881710602197953125e+12
2.973016154605679688e+12
-1.025889070409218750e+12
-5.115594637309462891e+12
-9.296670718129906250e+12
-1.356966736237718750e+13
-1.793511375462298438e+13
-2.239351745999818750e+13
-2.694536365781812500e+13
-3.159111436359178125e+13
-3.633120763969075000e+13
-4.116605679497612500e+13
-4.609604957370387500e+13
-5.112154733405137500e+13
-5.624288421662893750e+13
-6.146036630335912500e+13
-6.677427076712387500e+13
-7.218484501259362500e+13
-7.769230580866325000e+13
-8.329683841292787500e+13
-8.899859568863850000e+13
-9.479769721458325000e+13
-1.006942283883456250e+14
-1.066882395233930000e+14
-1.127797449404496250e+14
-1.189687220536073750e+14
-1.252551104516265000e+14
-1.316388109748785000e+14
-1.381196847883850000e+14
-1.446975524514080000e+14
-1.513721929840450000e+14
-1.581433429312782500e+14
-1.650106954249175000e+14
-1.719738992438612500e+14
-1.790325578730847500e+14
-1.861862285617492500e+14
-1.934344213808135000e+14
-2.007765982805195000e+14
-2.082121721481215000e+14
-2.157405058662287500e+14
-2.233609113721342500e+14
-2.310726487185015000e+14
-2.388749251357825000e+14
-2.467668940967530000e+14
-2.547476543835770000e+14
-2.628162491578400000e+14
-2.709716650340205000e+14
-2.792128311569005000e+14
-2.875386182834475000e+14
-2.959478378697330000e+14
-3.044392411634940000e+14
-3.130115183029945000e+14
-3.216632974228965000e+14
-3.303931437678990000e+14
-3.391995588149480000e+14
-3.480809794048565000e+14
-3.570357768841890000e+14
-3.660622562582660000e+14
-3.751586553561275000e+14
-3.843231440082650000e+14
-3.935538232378835000e+14
-4.028487244663870000e+14
-4.122058087337085000e+14
-4.216229659340375000e+14
-4.310980140674385000e+14
-4.406286985077875000e+14
-4.502126912873970000e+14
-4.598475903986445000e+14
-4.695309191128460000e+14
-4.792601253165270000e+14
-4.890325808651370000e+14
-4.988455809541310000e+14
-5.086963435072010000e+14
-5.185820085812830000e+14
-5.284996377878130000e+14
-5.384462137295680000e+14
-5.484186394522980000e+14
-5.584137379102540000e+14
-5.684282514446390000e+14
-5.784588412739490000e+14
-5.885020869951250000e+14
-5.985544860944090000e+14
-6.086124534668010000e+14
-6.186723209430370000e+14
-6.287303368230520000e+14
-6.387826654149600000e+14
-6.488253865786740000e+14
-6.588544952734010000e+14
-6.688659011083780000e+14
-6.788554278963760000e+14
-6.888188132096850000e+14
-6.987517079385050000e+14
-7.086496758518860000e+14
-7.185081931615910000e+14
-7.283226480894920000e+14
-7.380883404393630000e+14
-7.478004811741990000e+14
-7.574541920004550000e+14
-7.670445049608720000e+14
-7.765663620378100000e+14
-7.860146147692350000e+14
-7.953840238797230000e+14
-8.046692589290540000e+14
-8.138648979811920000e+14
-8.229654272966770000e+14
-8.319652410516900000e+14
-8.408586410873110000e+14
-8.496398366927600000e+14
-8.583029444266720000e+14
-8.668419879806910000e+14
-8.752508980898540000e+14
-8.835235124943390000e+14
-8.916535759571870000e+14
-8.996347403426020000e+14
-9.074605647594050000e+14
-9.151245157741810000e+14
-9.226199676986030000e+14
-9.299402029553400000e+14
-9.370784125268400000e+14
-9.440276964911400000e+14
-9.507810646487200000e+14
-9.573314372442560000e+14
-9.636716457869460000e+14
-9.697944339728740000e+14
-9.756924587126360000e+14
-9.813582912671740000e+14
-9.867844184944540000e+14
-9.919632442092980000e+14
-9.968870906583320000e+14
-1.001548200111636000e+15
-1.005938736572258000e+15
-1.010050787604270000e+15
-1.013876366279554000e+15
-1.017407413243030000e+15
-1.020635798895602000e+15
-1.023553325693674000e+15
-1.026151730563682000e+15
-1.028422687429670000e+15
-1.030357809851528000e+15
-1.031948653771086000e+15
-1.033186720362832000e+15
-1.034063458985590000e+15
-1.034570270231038000e+15
-1.034698509064492000e+15
-1.034439488052956000e+15
-1.033784480675034000e+15
-1.032724724706942000e+15
-1.031251425678542000e+15
-1.029355760393046000e+15
-1.027028880503814000e+15
-1.024261916141504000e+15
-1.021045979584710000e+15
-1.017372168967118000e+15
-1.013231572014132000e+15
-1.008615269801904000e+15
-1.003514340531752000e+15
-9.979198633130620000e+14
-9.918229219479300000e+14
-9.852146087110020000e+14
-9.780860281182220000e+14
-9.704283006785060000e+14
-9.622325666227080000e+14
-9.534899896046340000e+14
-9.441917603692860000e+14
-9.343291003839860000e+14
-9.238932654285160000e+14
-9.128755491409140000e+14
-9.012672865160670000e+14
-8.890598573547210000e+14
-8.762446896609950000e+14
-8.628132629869740000e+14
-8.487571117234890000e+14
-8.340678283367370000e+14
-8.187370665509570000e+14
-8.027565444779570000e+14
-7.861180476948820000e+14
-7.688134322722240000e+14
-7.508346277547010000e+14
-7.321736400982390000e+14
-7.128225545668770000e+14
-6.927735385939730000e+14
-6.720188446126390000e+14
-6.505508128608800000e+14
-6.283618741674440000e+14
-6.054445527249250000e+14
-5.817914688571930000e+14
-5.573953417887580000e+14
-5.322489924242080000e+14
-5.063453461463820000e+14
-4.796774356424280000e+14
-4.522384037673290000e+14
-4.240215064548685000e+14
-3.950201156863425000e+14
-3.652277225276105000e+14
-3.346379402453095000e+14
-3.032445075132180000e+14
-2.710412917198405000e+14
-2.380222923882830000e+14
-2.041816447194125000e+14
-1.695136232691400000e+14
-1.340126457704340000e+14
-9.767327711036725000e+13
-6.049023347212387500e+13
-2.245838665144912500e+13
1.642723144348759375e+13
5.617142410042031250e+13
9.677882491174331250e+13
1.382538926766226250e+14
1.806009060901210000e+14
2.238239582137712500e+14
2.679269507228470000e+14
3.129135879264250000e+14
3.587873705572050000e+14
4.055515893289460000e+14
4.532093182602855000e+14
5.017634077646205000e+14
5.512164775066410000e+14
6.015709090270100000e+14
6.528288381375740000e+14
7.049921470903640000e+14
7.580624565245000000e+14
8.120411171959300000e+14
8.669292014957240000e+14
9.227274947634110000e+14
9.794364864025800000e+14
1.037056360806682000e+15
1.095586988103694000e+15
1.155027914729032000e+15
1.215378353836830000e+15
1.276637175560430000e+15
1.338802897133608000e+15
1.401873672884678000e+15
1.465847284116208000e+15
1.530721128883598000e+15
1.596492211686192000e+15
1.663157133084894000e+15
1.730712079260450000e+15
1.799152811526584000e+15
1.868474655812094000e+15
1.938672492125800000e+15
2.009740744017928000e+15
2.081673368051084000e+15
2.154463843293436000e+15
2.228105160846080000e+15
2.302589813415748000e+15
2.377909784943100000e+15
2.454056540295816000e+15
2.531021015034620000e+15
2.608793605259260000e+15
2.687364157540352000e+15
2.766721958941912000e+15
2.846855727138380000e+15
2.927753600629056000e+15
3.009403129052148000e+15
3.091791263599964000e+15
3.174904347536220000e+15
3.258728106816020000e+15
3.343247640808728000e+15
3.428447413123700000e+15
3.514311242538576000e+15
3.600822294029612000e+15
3.687963069903436000e+15
3.775715401029800000e+15
3.864060438175408000e+15
3.952978643439768000e+15
4.042449781795056000e+15
4.132452912733120000e+15
4.222966382023944000e+15
4.313967813591072000e+15
4.405434101510552000e+15
4.497341402140832000e+15
4.589665126391736000e+15
4.682379932141104000e+15
4.775459716808000000e+15
4.868877610091416000e+15
4.962605966883152000e+15
5.056616360363248000e+15
5.150879575286080000e+15
5.245365601464832000e+15
5.340043627461520000e+15
5.434882034489112000e+15
5.529848390531424000e+15
5.624909444685440000e+15
5.720031121729528000e+15
5.815178516919824000e+15
5.910315891015808000e+15
6.005406665534760000e+15
6.100413418233272000e+15
6.195297878812416000e+15
6.290020924841584000e+15
6.384542577894432000e+15
6.478821999888664000e+15
6.572817489619656000e+15
6.666486479476224000e+15
6.759785532325392000e+15
6.852670338551640000e+15
6.945095713234752000e+15
7.037015593449096000e+15
7.128383035665992000e+15
7.219150213239528000e+15
7.309268413954952000e+15
7.398688037617544000e+15
7.487358593658560000e+15
7.575228698733472000e+15
7.662246074286384000e+15
7.748357544053536000e+15
7.833509031478256000e+15
7.917645557009664000e+15
8.000711235257808000e+15
8.082649271978608000e+15
8.163401960863216000e+15
8.242910680108224000e+15
8.321115888745504000e+15
8.397957122713168000e+15
8.473372990652352000e+15
8.547301169418080000e+15
8.619678399296400000e+15
8.690440478924288000e+15
8.759522259913232000e+15
8.826857641182208000e+15
8.892379563011088000e+15
8.956020000831536000e+15
9.017709958778816000e+15
9.077379463034304000e+15
9.134957554994832000e+15
9.190372284311488000e+15
9.243550701846864000e+15
9.294418852605936000e+15
9.342901768701520000e+15
9.388923462420784000e+15
9.432406919464672000e+15
9.473274092437552000e+15
9.511445894669904000e+15
9.546842194462096000e+15
9.579381809841984000e+15
9.608982503932992000e+15
9.635560981032544000e+15
9.659032883503248000e+15
9.679312789580896000e+15
9.696314212204544000e+15
9.709949598974688000e+15
9.720130333345904000e+15
9.726766737160288000e+15
9.729768074627440000e+15
9.729042557855616000e+15
9.724497354036928000e+15
9.716038594386912000e+15
9.703571384935664000e+15
9.686999819263952000e+15
9.666226993273264000e+15
9.641155022073616000e+15
9.611685059066976000e+15
9.577717317297456000e+15
9.539151093132064000e+15
9.495884792328144000e+15
9.447815958535456000e+15
9.394841304272400000e+15
9.336856744407184000e+15
9.273757432165760000e+15
9.205437797678992000e+15
9.131791589071824000e+15
9.052711916087232000e+15
8.968091296227472000e+15
8.877821703384800000e+15
8.781794618923824000e+15
8.679901085167888000e+15
8.572031761232384000e+15
8.458076981139136000e+15
8.337926814137968000e+15
8.211471127154480000e+15
8.078599649277072000e+15
7.939202038191392000e+15
7.793167948466560000e+15
7.640387101594320000e+15
7.480749357679696000e+15
7.314144788679824000e+15
7.140463753086136000e+15
6.959596971943896000e+15
6.771435606102256000e+15
6.575871334587312000e+15
6.372796433989992000e+15
6.162103858759904000e+15
5.943687322295800000e+15
5.717441378723424000e+15
5.483261505252440000e+15
5.241044185006088000e+15
4.990686990219840000e+15
4.732088665708440000e+15
4.465149212504408000e+15
4.189769971575192000e+15
3.905853707530520000e+15
3.613304692236056000e+15
3.312028788254292000e+15
3.001933532038708000e+15
2.682928216812572000e+15
2.354923975069264000e+15
2.017833860636724000e+15
1.671572930254488000e+15
1.316058324617864000e+15
9.512093488500680000e+14
5.769475523696000000e+14
1.931968081266980000e+14
-2.001166088107142500e+14
-6.030639433345595000e+14
-1.015713883044005000e+15
-1.438132481662582000e+15
-1.870383083118452000e+15
-2.312526246274944000e+15
-2.764619670292340000e+15
-3.226718120595924000e+15
-3.698873355419576000e+15
-4.181134052888760000e+15
-4.673545738601672000e+15
-5.176150713662624000e+15
-5.688987983117504000e+15
-6.212093184737368000e+15
-6.745498518092816000e+15
-7.289232673858632000e+15
-7.843320763285032000e+15
-8.407784247768816000e+15
-8.982640868455056000e+15
-9.567904575797728000e+15
-1.016358545900617600e+16
-1.076968967530366400e+16
-1.138621937892428800e+16
-1.201317264977542400e+16
-1.265054342169467200e+16
-1.329832141023284800e+16
-1.395649203989836800e+16
-1.462503637080296000e+16
-1.530393102465390400e+16
-1.599314811004400000e+16
-1.669265514699702400e+16
-1.740241499073350400e+16
-1.812238575462892800e+16
-1.885252073234400000e+16
-1.959276831911456000e+16
-2.034307193219664000e+16
-2.110336993046963200e+16
-2.187359553320742400e+16
-2.265367673803388800e+16
-2.344353623808560000e+16
-2.424309133841136000e+16
-2.505225387164528000e+16
-2.587093011299724800e+16
-2.669902069461132800e+16
-2.753642051934915200e+16
-2.838301867406086400e+16
-2.923869834241152000e+16
-3.010333671733632000e+16
-3.097680491320345600e+16
-3.185896787776787200e+16
-3.274968430400217600e+16
-3.364880654189292800e+16
-3.455618051029145600e+16
-3.547164560890822400e+16
-3.639503463053804800e+16
-3.732617367360019200e+16
-3.826488205507187200e+16
-3.921097222388665600e+16
-4.016424967486054400e+16
-4.112451286319897600e+16
-4.209155311962848000e+16
-4.306515456618758400e+16
-4.404509403270272000e+16
-4.503114097396697600e+16
-4.602305738763392000e+16
-4.702059773283603200e+16
-4.802350884953644800e+16
-4.903152987862246400e+16
-5.004439218274899200e+16
-5.106181926793958400e+16
-5.208352670595251200e+16
-5.310922205741932800e+16
-5.413860479576416000e+16
-5.517136623191296000e+16
-5.620718943980371200e+16
-5.724574918270886400e+16
-5.828671184038150400e+16
-5.932973533703526400e+16
-6.037446907016716800e+16
-6.142055384023398400e+16
-6.246762178119872000e+16
-6.351529629197529600e+16
-6.456319196881638400e+16
-6.561091453871142400e+16
-6.665806079388672000e+16
-6.770421852752729600e+16
-6.874896647087116800e+16
-6.979187423186009600e+16
-7.083250223556492800e+16
-7.187040166663692800e+16
-7.290511441406835200e+16
-7.393617301857408000e+16
-7.496310062293081600e+16
-7.598541092562867200e+16
-7.700260813820288000e+16
-7.801418694662080000e+16
-7.901963247710028800e+16
-8.001842026673177600e+16
-8.101001623927078400e+16
-8.199387668646054400e+16
-8.296944825523699200e+16
-8.393616794115955200e+16
-8.489346308839974400e+16
-8.584075139660736000e+16
-8.677744093496102400e+16
-8.770293016369638400e+16
-8.861660796339187200e+16
-8.951785367227955200e+16
-9.040603713183449600e+16
-9.128051874087987200e+16
-9.214064951842329600e+16
-9.298577117541516800e+16
-9.381521619559142400e+16
-9.462830792553318400e+16
-9.542436067404672000e+16
-9.620267982093964800e+16
-9.696256193524185600e+16
-9.770329490289088000e+16
-9.842415806387008000e+16
-9.912442235875084800e+16
-9.980335048455129600e+16
-1.004601970597850880e+17
-1.010942087985344000e+17
-1.017046246933411840e+17
-1.022906762066704640e+17
-1.028515874706593280e+17
-1.033865754948282880e+17
-1.038948503813934080e+17
-1.043756155477822720e+17
-1.048280679559243520e+17
-1.052513983478548480e+17
-1.056447914871425280e+17
-1.060074264056305920e+17
-1.063384766549630720e+17
-1.066371105623553280e+17
-1.069024914900564480e+17
-1.071337780979413760e+17
-1.073301246086636800e+17
-1.074906810747955200e+17
-1.076145936473821440e+17
-1.077010048453410560e+17
-1.077490538251445760e+17
-1.077578766502361600e+17
-1.077266065596436480e+17
-1.076543742352680960e+17
-1.075403080673410560e+17
-1.073835344175575040e+17
-1.071831778794073600e+17
-1.069383615352445440e+17
-1.066482072096476160e+17
-1.063118357186433280e+17
-1.059283671143854080e+17
-1.054969209249062400e+17
-1.050166163885884160e+17
-1.044865726830343680e+17
-1.039059091480503040e+17
-1.032737455025086720e+17
-1.025892020549052160e+17
-1.018513999074794240e+17
-1.010594611538228480e+17
-1.002125090699585280e+17
-9.930966829893875200e+16
-9.835006502907942400e+16
-9.733282716602355200e+16
-9.625708449889881600e+16
-9.512196886090636800e+16
-9.392661428474995200e+16
-9.267015715338611200e+16
-9.135173634664409600e+16
-8.997049338433177600e+16
-8.852557256650867200e+16
-8.701612111167078400e+16
-8.544128929365606400e+16
-8.380023057814438400e+16
-8.209210175968921600e+16
-8.031606310028224000e+16
-7.847127847051609600e+16
-7.655691549447436800e+16
-7.457214569954252800e+16
-7.251614467239539200e+16
-7.038809222247564800e+16
-6.818717255433177600e+16
-6.591257445022988800e+16
-6.356349146449203200e+16
-6.113912213104268800e+16
-5.863867018566374400e+16
-5.606134480446476800e+16
-5.340636086007116800e+16
-5.067293919701702400e+16
-4.786030692780294400e+16
-4.496769775104160000e+16
-4.199435229306528000e+16
-3.893951847430969600e+16
-3.580245190171872000e+16
-3.258241628833664000e+16
-2.927868390116774400e+16
-2.589053603828848000e+16
-2.241726353609587200e+16
-1.885816730746880000e+16
-1.521255891150752000e+16
-1.147976115540188800e+16
-7.659108728860256000e+15
-3.749948871409344000e+15
2.483579272490720000e+14
4.336437193764961500e+15
8.514899704617804000e+15
1.278434068674038400e+16
1.714533898561097600e+16
2.159845620126281600e+16
2.614423579278502400e+16
3.078320215201264000e+16
3.551585964722393600e+16
4.034269163778016000e+16
4.526415946075571200e+16
5.028070139071494400e+16
5.539273157389484800e+16
6.060063893815072000e+16
6.590478608011276800e+16
7.130550813108492800e+16
7.680311160329152000e+16
8.239787321814464000e+16
8.809003871826560000e+16
9.387982166504742400e+16
9.976740222359155200e+16
1.057529259368884480e+17
1.118365024911348480e+17
1.180182044740913920e+17
1.242980661283837440e+17
1.306760821016378880e+17
1.371522061953118720e+17
1.437263501140405760e+17
1.503983822172474880e+17
1.571681262747033600e+17
1.640353602276282880e+17
1.709998149568432640e+17
1.780611730593838080e+17
1.852190676348997120e+17
1.924730810830822400e+17
1.998227439132820480e+17
2.072675335674122240e+17
2.148068732571735040e+17
2.224401308165885440e+17
2.301666175707868160e+17
2.379855872219348480e+17
2.458962347531514880e+17
2.538976953511900160e+17
2.619890433486069760e+17
2.701692911860679680e+17
2.784373883953694720e+17
2.867922206036910080e+17
2.952326085595340800e+17
3.037573071807457280e+17
3.123650046249574400e+17
3.210543213826959360e+17
3.298238093933552640e+17
3.386719511841669120e+17
3.475971590322657280e+17
3.565977741499217920e+17
3.656720658929838080e+17
3.748182309925642240e+17
3.840343928099998720e+17
3.933186006151280640e+17
4.026688288879272960e+17
4.120829766435809280e+17
4.215588667810181120e+17
4.310942454549632000e+17
4.406867814714880000e+17
4.503340657070264320e+17
4.600336105507840000e+17
4.697828493704545280e+17
4.795791360011402240e+17
4.894197442573598720e+17
4.993018674680217600e+17
5.092226180342272000e+17
5.191790270097500160e+17
5.291680437040005120e+17
5.391865353072199680e+17
5.492312865375703040e+17
5.592989993096949760e+17
5.693862924242176000e+17
5.794897012775229440e+17
5.896056775910420480e+17
5.997305891591311360e+17
6.098607196144936960e+17
6.199922682099445760e+17
6.301213496151633920e+17
6.402439937269340160e+17
6.503561454912409600e+17
6.604536647354961920e+17
6.705323260091136000e+17
6.805878184306135040e+17
6.906157455394140160e+17
7.006116251504547840e+17
7.105708892097976320e+17
7.204888836493711360e+17
7.303608682390487040e+17
7.401820164342743040e+17
7.499474152174807040e+17
7.596520649315799040e+17
7.692908791038402560e+17
7.788586842585190400e+17
7.883502197166940160e+17
7.977601373818490880e+17
8.070830015099095040e+17
8.163132884625858560e+17
8.254453864430684160e+17
8.344735952133160960e+17
8.433921257924024320e+17
8.521951001355745280e+17
8.608765507938549760e+17
8.694304205541857280e+17
8.778505620602890240e+17
8.861307374145792000e+17
8.942646177615912960e+17
9.022457828535173120e+17
9.100677205985464320e+17
9.177238265927639040e+17
9.252074036364083200e+17
9.325116612353157120e+17
9.396297150884249600e+17
9.465545865623255040e+17
9.532792021540003840e+17
9.597963929431449600e+17
9.660988940356853760e+17
9.721793440003829760e+17
9.780302843006873600e+17
9.836441587242946560e+17
9.890133128131850240e+17
9.941299932972339200e+17
9.989863475348623360e+17
1.003574422964580352e+18
1.007886166571669504e+18
1.011913424374640640e+18
1.015647940936536064e+18
1.019081358906630144e+18
1.022205218598600704e+18
1.025010957611782144e+18
1.027489910502670336e+18
1.029633308514404352e+18
1.031432279372496896e+18
1.032877847155609600e+18
1.033960932250656768e+18
1.034672351401973760e+18
1.035002817864701952e+18
1.034942941672884224e+18
1.034483230033022976e+18
1.033614087854012416e+18
1.032325818424432640e+18
1.030608624248154112e+18
1.028452608049098752e+18
1.025847773955829760e+18
1.022784028876435456e+18
1.019251184073936896e+18
1.015238956952182784e+18
1.010736973061924864e+18
1.005734768336494592e+18
1.000221791566198784e+18
9.941874071202058240e+17
9.876208979243397120e+17
9.805114687028244480e+17
9.728482494916341760e+17
9.646202994306764800e+17
9.558166108415324160e+17
9.464261135969075200e+17
9.364376797873192960e+17
9.258401286898554880e+17
9.146222320430909440e+17
9.027727196314286080e+17
8.902802851812331520e+17
8.771335925701601280e+17
8.633212823500523520e+17
8.488319785826836480e+17
8.336542959864893440e+17
8.177768473912381440e+17
8.011882514963875840e+17
7.838771409276313600e+17
7.658321705848965120e+17
7.470420262737868800e+17
7.274954336112097280e+17
7.071811671947008000e+17
6.860880600237373440e+17
6.642050131601367040e+17
6.415210056134696960e+17
6.180251044362711040e+17
5.937064750127134720e+17
5.685543915233382400e+17
5.425582475674296320e+17
5.157075669236889600e+17
4.879920144290375680e+17
4.594014069546721280e+17
4.299257244579420160e+17
3.995551210882222080e+17
3.682799363247104000e+17
3.360907061239843840e+17
3.029781740552135680e+17
2.689333024011166720e+17
2.339472832030858240e+17
1.980115492293524480e+17
1.611177848456476160e+17
1.232579367685015040e+17
8.442422468212992000e+16
4.460915170076326400e+16
3.805514659285312000e+15
-3.799358578383697600e+16
-8.079473524614272000e+16
-1.246041959367984640e+17
-1.694278972003898880e+17
-2.152714262995814400e+17
-2.621400194458455040e+17
-3.100385530859243520e+17
-3.589715354501160960e+17
-4.089430983668802560e+17
-4.599569893466542080e+17
-5.120165639361623040e+17
-5.651247783429038080e+17
-6.192841823279380480e+17
-6.744969123635640320e+17
-7.307646850510151680e+17
-7.880887907918612480e+17
-8.464700877054289920e+17
-9.059089957832294400e+17
-9.664054912701460480e+17
-1.027959101260996608e+18
-1.090568898500055040e+18
-1.154233496370190336e+18
-1.218951044057430016e+18
-1.284719221875970048e+18
-1.351535236737943552e+18
-1.419395817751658496e+18
-1.488297211931508736e+18
-1.558235180002363392e+18
-1.629204992280948736e+18
-1.701201424616523776e+18
-1.774218754373019648e+18
-1.848250756434747392e+18
-1.923290699217786880e+18
-1.999331340669276160e+18
-2.076364924236984320e+18
-2.154383174791757824e+18
-2.233377294485729280e+18
-2.313337958529523712e+18
-2.394255310872031232e+18
-2.476118959766630400e+18
-2.558917973208080384e+18
-2.642640874224697344e+18
-2.727275636010979328e+18
-2.812809676886540288e+18
-2.899229855068053504e+18
-2.986522463241904128e+18
-3.074673222926327808e+18
-3.163667278613020672e+18
-3.253489191679471616e+18
-3.344122934064615424e+18
-3.435551881701818368e+18
-3.527758807704723456e+18
-3.620725875303272448e+18
-3.714434630529200128e+18
-3.808865994652360704e+18
-3.904000256371392512e+18
-3.999817063764443136e+18
-4.096295416007892992e+18
-4.193413654873284608e+18
-4.291149456015007744e+18
-4.389479820063801344e+18
-4.488381063543791616e+18
-4.587828809633538048e+18
-4.687797978794172416e+18
-4.788262779290181632e+18
-4.889196697630801920e+18
-4.990572488962260992e+18
-5.092362167443177472e+18
-5.194536996637261824e+18
-5.297067479959191552e+18
-5.399923351211032576e+18
-5.503073565247733760e+18
-5.606486288810926080e+18
-5.710128891570429952e+18
-5.813967937412440064e+18
-5.917969176012406784e+18
-6.022097534729232384e+18
-6.126317110855409664e+18
-6.230591164255191040e+18
-6.334882110420000768e+18
-6.439151513967083520e+18
-6.543360082603966464e+18
-6.647467661577797632e+18
-6.751433228624855040e+18
-6.855214889431597056e+18
-6.958769873614430208e+18
-7.062054531221233664e+18
-7.165024329753788416e+18
-7.267633851706605568e+18
-7.369836792614477824e+18
-7.471585959598710784e+18
-7.572833270400196608e+18
-7.673529752886263808e+18
-7.773625545017573376e+18
-7.873069895261044736e+18
-7.971811163434876928e+18
-8.069796821972385792e+18
-8.166973457592500224e+18
-8.263286773366292480e+18
-8.358681591170613248e+18
-8.453101854521802752e+18
-8.546490631784333312e+18
-8.638790119751286784e+18
-8.729941647595520000e+18
-8.819885681191976960e+18
-8.908561827812737024e+18
-8.995908841197174784e+18
-9.081864626999934976e+18
-9.166366248619343872e+18
-9.249349933408436224e+18
-9.330751079270006784e+18
-9.410504261636128768e+18
-9.488543240831565824e+18
-9.564800969819439104e+18
-9.639209602326331392e+18
-9.711700501342945280e+18
-9.782204247995400192e+18
-9.850650650781335552e+18
-9.916968755164282880e+18
-9.981086853519114240e+18
-1.004293249542080102e+19
-1.010243249826822554e+19
-1.015951295823442739e+19
-1.021409926153473229e+19
-1.026611609600480051e+19
-1.031548746298158285e+19
-1.036213668948136755e+19
-1.040598644067077325e+19
-1.044695873262875443e+19
-1.048497494540027494e+19
-1.051995583634505728e+19
-1.055182155378735514e+19
-1.058049165097510502e+19
-1.060588510035895910e+19
-1.062792030820333978e+19
-1.064651512954286899e+19
-1.066158688349867213e+19
-1.067305236897026867e+19
-1.068082788072010547e+19
-1.068482922586895155e+19
-1.068497174082153677e+19
-1.068117030864289792e+19
-1.067333937690712474e+19
-1.066139297604163994e+19
-1.064524473819157299e+19
-1.062480791663011430e+19
-1.059999540574206362e+19
-1.057071976160881869e+19
-1.053689322322352538e+19
-1.049842773436532326e+19
-1.045523496616147354e+19
-1.040722634036559872e+19
-1.035431305337933005e+19
-1.029640610104336384e+19
-1.023341630422245376e+19
-1.016525433520726016e+19
-1.009183074495458509e+19
-1.001305599118642381e+19
-9.928840467367182336e+18
-9.839094532577443840e+18
-9.743728542301782016e+18
-9.642652880146923520e+18
-9.535777990504742912e+18
-9.423014412172378112e+18
-9.304272812939182080e+18
-9.179464025147179008e+18
-9.048499082228269056e+18
-8.911289256217919488e+18
-8.767746096241639424e+18
-8.617781467967143936e+18
-8.461307594011934720e+18
-8.298237095292862464e+18
-8.128483033301237760e+18
-7.951958953284157440e+18
-7.768578928309829632e+18
-7.578257604191682560e+18
-7.380910245242945536e+18
-7.176452780830318592e+18
-6.964801852692439040e+18
-6.745874862986289152e+18
-6.519590023022403584e+18
-6.285866402647777280e+18
-6.044623980233850880e+18
-5.795783693225951232e+18
-5.539267489210064896e+18
-5.274998377452953600e+18
-5.002900480872325120e+18
-4.722899088395034624e+18
-4.434920707663134720e+18
-4.138893118049992704e+18
-3.834745423951626240e+18
-3.522408108321792000e+18
-3.201813086423093248e+18
-2.872893759770406912e+18
-2.535585070247272448e+18
-2.189823554380431360e+18
-1.835547397762379776e+18
-1.472696489616568320e+18
-1.101212477504729088e+18
-7.210388221806387200e+17
-3.321208525994362880e+17
6.559417890363852800e+16
4.721570412465953280e+17
8.876164690231659520e+17
1.312019106687133696e+18
1.745409452467165184e+18
2.187829801976950784e+18
2.639320191481888768e+18
3.099918340780281856e+18
3.569659595654082560e+18
4.048576869841649664e+18
4.536700586482827264e+18
5.034058618984849408e+18
5.540676231256080384e+18
6.056576017253408768e+18
6.581777839788285952e+18
7.116298768536068096e+18
7.660153017193463808e+18
8.213351879729414144e+18
8.775903665675567104e+18
9.347813634403647488e+18
9.929083928338448384e+18
1.051971350505678438e+19
1.111969806822460621e+19
1.172902999732668006e+19
1.234769827614582374e+19
1.297568841995142758e+19
1.361298240135990477e+19
1.425955857483230413e+19
1.491539159977702195e+19
1.558045236222808883e+19
1.625470789507189965e+19
1.693812129679733555e+19
1.763065164874648781e+19
1.833225393084563456e+19
1.904287893579900518e+19
1.976247318173112730e+19
2.049097882326689382e+19
2.122833356104220672e+19
2.197447054964270694e+19
2.272931830397353984e+19
2.349280060406867558e+19
2.426483639835380941e+19
2.504533970538279731e+19
2.583421951407338291e+19
2.663137968247429530e+19
2.743671883510349824e+19
2.825013025890562867e+19
2.907150179788560794e+19
2.990071574648464998e+19
3.073764874177403290e+19
3.158217165454986445e+19
3.243414947941974016e+19
3.329344122397982720e+19
3.415989979718811648e+19
3.503337189704610611e+19
3.591369789770714317e+19
3.680071173613525402e+19
3.769424079844455219e+19
