5.281391873287867300e-01
5.294183137528669647e-01
5.332439387929294172e-01
5.395811508738849183e-01
5.483728507393212936e-01
5.595411098874577549e-01
5.729885983761585644e-01
5.885997455066980244e-01
6.062413472672607551e-01
6.257624323987692749e-01
6.469933204869361409e-01
6.697439314502638963e-01
6.938015263299425195e-01
7.189281729430708756e-01
7.448583389698038015e-01
7.712971188959820701e-01
7.979196907103627279e-01
8.243726519984468926e-01
8.502778704128177711e-01
8.752393628066913456e-01
8.988534600934890983e-01
9.207221139865515713e-01
9.404686894328558866e-01
9.577550431332328973e-01
9.722982354150154771e-01
9.838849943998876357e-01
9.923821508657083568e-01
9.977417152825359681e-01
1.000000000000000000e+00
9.992710377416750278e-01
9.957353156389305848e-01
9.896253666701919638e-01
9.812099547140480382e-01
9.707784697211377933e-01
9.586268045924069003e-01
9.450455357449220051e-01
9.303107855750278876e-01
9.146777817811221345e-01
8.983768780753885741e-01
8.816116608074430205e-01
8.645587134924487271e-01
8.473686165848229868e-01
8.301677968149686615e-01
8.130608910555587876e-01
7.961333448378169475e-01
7.794540224223666103e-01
7.630776634837674877e-01
7.470470801464891286e-01
7.313950442753137660e-01
7.161458636420470203e-01
7.013166817162015398e-01
6.869185560436877891e-01
6.729573743736519953e-01
6.594346590815161058e-01
6.463482944549525655e-01
6.336931939636163413e-01
6.214619104096795743e-01
6.096451833220618566e-01
5.982324152919977767e-01
5.872120707430209530e-01
5.765719949040268855e-01
5.662996557878781090e-01
5.563823166624385363e-01
5.468071502561901998e-01
5.375613084472263825e-01
5.286319622065698276e-01
5.200063259677065730e-01
5.116716784556598618e-01
5.036153887017421615e-01
4.958249520952384137e-01
4.882880375532041572e-01
4.809925437980274721e-01
4.739266606807631677e-01
4.670789305898749855e-01
4.604383051316691677e-01
4.539941931910012052e-01
4.477364978213639324e-01
4.416556408042295323e-01
4.357425748627368201e-01
4.299887842723259523e-01
4.243862750401166672e-01
4.189275561541650483e-01
4.136056138972001861e-01
4.084138819908963991e-01
4.033462112221305462e-01
3.983968427894329367e-01
3.935603894299834482e-01
3.888318271824077743e-01
3.842064985158160084e-01
3.796801249696820646e-01
3.752488250312892570e-01
3.709091313007729651e-01
3.666580004231250189e-01
3.624928099184748231e-01
3.584113378141191020e-01
3.544117235872055183e-01
3.504924119162400320e-01
3.466520835448236859e-01
3.428895796008784025e-01
3.392038265512996031e-01
3.355937684573786495e-01
3.320583115308023969e-01
3.285962836570554546e-01
3.252064091556227110e-01
3.218872971167172081e-01
3.186374405113623354e-01
3.154552229697351051e-01
3.123389304902099428e-01
3.092867660796201346e-01
3.062968661227943867e-01
3.033673179062812975e-01
3.004961780735426746e-01
2.976814918801800047e-01
2.949213130292892004e-01
2.922137236895650525e-01
2.895568540957983994e-01
2.869489009381619993e-01
2.843881435934682012e-01
2.818729571852343629e-01
2.794018215412169548e-01
2.769733253948002960e-01
2.745861656472902146e-01
2.722391420966314146e-01
2.699311486081409917e-01
2.676611621010084319e-01
2.654282308382597821e-01
2.632314633132483150e-01
2.610700185979570875e-01
2.589430985031218047e-01
2.568499414554711313e-01
2.547898177340869319e-01
2.527620256542346122e-01
2.507658883900556468e-01
2.488007512872617844e-01
2.468659796351592162e-01
2.449609568892164579e-01
2.430850832673854545e-01
2.412377745413739616e-01
2.394184607801535802e-01
2.376265848278655834e-01
2.358616004174035885e-01
2.341229699942894149e-01
2.324101624885554773e-01
2.307226513658293121e-01
2.290599132822134509e-01
2.274214275678090313e-01
2.258066766079480370e-01
2.242151470290645598e-01
2.226463314708856944e-01
2.210997306619993663e-01
2.195748555129935775e-01
2.180712289849147112e-01
2.165883875596373853e-01
2.151258822150243777e-01
2.136832788805110017e-01
2.122601584120832607e-01
2.108561161751163482e-01
2.094707613546097635e-01
2.081037161216039433e-01
2.067546147724658168e-01
2.054231029295331412e-01
2.041088368555672161e-01
2.028114828985699003e-01
2.015307170531903114e-01
2.002662246029569271e-01
1.990176997953675420e-01
1.977848455005412343e-01
1.965673728139742116e-01
1.953650005831029657e-01
1.941774548612812124e-01
1.930044683150035911e-01
1.918457796247366454e-01
1.907011329232355945e-01
1.895702773082537651e-01
1.884529664530139592e-01
1.873489583231988109e-01
1.862580149982991928e-01
1.851799025900667250e-01
1.841143912504448199e-01
1.830612552622375988e-01
1.820202732041321103e-01
1.809912281755496899e-01
1.799739080571184924e-01
1.789681057728608471e-01
1.779736195148708122e-01
1.769902528935895225e-01
1.760178149873767028e-01
1.750561202815728301e-01
1.741049885052099178e-01
1.731642443881517834e-01
1.722337173693382351e-01
1.713132412870974342e-01
1.704026540768317777e-01
1.695017974929014792e-01
1.686105168633483253e-01
1.677286608801491219e-01
1.668560814243089940e-01
1.659926334234920753e-01
1.651381747389079613e-01
1.642925660770979956e-01
1.634556709210091829e-01
1.626273554737046878e-01
1.618074886076828200e-01
1.609959418133138642e-01
1.601925891412852854e-01
1.593973071359502947e-01
1.586099747588034514e-01
1.578304733036822727e-01
1.570586863073875350e-01
1.562944994608834459e-01
1.555378005267647468e-01
1.547884792681283872e-01
1.540464273924954108e-01
1.533115385124051711e-01
1.525837081222230773e-01
1.518628335889901926e-01
1.511488141539507335e-01
1.504415509407101281e-01
1.497409469656582059e-01
1.490469071462464379e-01
1.483593383029306045e-01
1.476781491511537092e-01
1.470032502807034347e-01
1.463345541211086287e-01
1.456719748932812086e-01
1.450154285491176143e-01
1.443648327019910471e-01
1.437201065518098342e-01
1.430811708085616418e-01
1.424479476180850746e-01
1.418203604933661321e-01
1.411983342540636122e-01
1.405817949762731001e-01
1.399706699537203725e-01
1.393648876706087836e-01
1.387643777852382576e-01
1.381690711223860779e-01
1.375788996714745749e-01
1.369937965869735819e-01
1.364136961874616305e-01
1.358385339503649092e-01
1.352682465004690637e-01
1.347027715916298274e-01
1.341420480823655170e-01
1.335860159069436059e-01
1.330346160440248338e-01
1.324877904849127153e-01
1.319454822030901309e-01
1.314076351261914688e-01
1.308741941110147800e-01
1.303451049217341506e-01
1.298203142111523933e-01
1.292997695046174123e-01
1.287834191860517119e-01
1.282712124853989111e-01
1.277630994666559550e-01
1.272590310155982674e-01
1.267589588263469402e-01
1.262628353861225128e-01
1.257706139578513571e-01
1.252822485607038017e-01
1.247976939490462178e-01
1.243169055906075404e-01
1.238398396448295441e-01
1.233664529423553896e-01
1.228967029664410904e-01
1.224305478367885835e-01
1.219679462959686461e-01
1.215088576982853996e-01
1.210532420006891902e-01
1.206010597551924884e-01
1.201522721022003637e-01
1.197068407642026128e-01
1.192647280393788756e-01
1.188258967947854322e-01
1.183903104589158900e-01
1.179579330135346188e-01
1.175287289847668365e-01
1.171026634335057964e-01
1.166797019452518736e-01
1.162598106195417286e-01
1.158429560591427154e-01
1.154291053591921801e-01
1.150182260964418557e-01
1.146102863187446336e-01
1.142052545348949399e-01
1.138030997049044452e-01
1.134037912307657714e-01
1.130072989477214629e-01
1.126135931160176379e-01
1.122226444130830364e-01
1.118344239260526396e-01
1.114489031445482919e-01
1.110660539536455077e-01
1.106858486269906156e-01
1.103082598200633285e-01
1.099332605636100246e-01
1.095608242572788243e-01
1.091909246634732017e-01
1.088235359014179254e-01
1.084586324413984726e-01
1.080961890991135599e-01
1.077361810300746653e-01
1.073785837239967650e-01
1.070233729991511840e-01
1.066705249966814623e-01
1.063200161749137673e-01
1.059718233037149487e-01
1.056259234589601442e-01
1.052822940171710131e-01
1.049409126503746820e-01
1.046017573212159324e-01
1.042648062783383678e-01
1.039300380520247341e-01
1.035974314500732740e-01
1.032669655538677178e-01
1.029386197145906040e-01
1.026123735495242245e-01
1.022882069383845988e-01
1.019661000196401823e-01
1.016460331867802686e-01
1.013279870845091857e-01
1.010119426048603775e-01
1.006978808832351552e-01
1.003857832943833711e-01
1.000756314483428749e-01
9.976740718635630778e-02
9.946109257677877846e-02
9.915666991099326977e-02
9.885412169935123283e-02
9.855343066716774902e-02
9.825457975081162976e-02
9.795755209393419705e-02
9.766233104388175046e-02
9.736890014832719209e-02
9.707724315213756006e-02
9.678734399447756764e-02
9.649918680612940003e-02
9.621275590699540636e-02
9.592803580373783501e-02
9.564501118750491637e-02
9.536366693168893405e-02
9.508398808966224414e-02
9.480595989244849919e-02
9.452956774629983627e-02
9.425479723017120282e-02
9.398163409311043048e-02
9.371006425160269271e-02
9.344007378692677224e-02
9.317164894258252172e-02
9.290477612184749878e-02
9.263944188549448622e-02
9.237563294968197114e-02
9.211333618399779322e-02
9.185253860961085925e-02
9.159322739746796060e-02
9.133538986647014857e-02
9.107901348156428878e-02
9.082408585170642645e-02
9.057059472767756136e-02
9.031852799976008983e-02
9.006787369530916409e-02
8.981861997627409167e-02
8.957075513673461165e-02
8.932426760051730141e-02
8.907914591894607048e-02
8.883537876876448913e-02
8.859295495024323286e-02
8.835186338546545393e-02
8.811209311676447553e-02
8.787363330527560301e-02
8.763647322956212571e-02
8.740060228427697087e-02
8.716600997883297564e-02
8.693268593606354178e-02
8.670061989086960685e-02
8.646980168885567974e-02
8.624022128496361406e-02
8.601186874211153022e-02
8.578473422984518593e-02
8.555880802300395993e-02
8.533408050039927029e-02
8.511054214350027847e-02
8.488818353512293802e-02
8.466699535811365862e-02
8.444696839402585087e-02
8.422809352178543818e-02
8.401036171634705674e-02
8.379376404734663331e-02
8.357829167775823742e-02
8.336393586256590771e-02
8.315068794746381664e-02
8.293853936759364165e-02
8.272748164632770518e-02
8.251750639409634325e-02
8.230860530725997437e-02
8.210077016701268493e-02
8.189399283831143295e-02
8.168826526881908801e-02
8.148357948785535376e-02
8.127992760535278360e-02
8.107730181081884702e-02
8.087569437230809899e-02
8.067509763541053092e-02
8.047550402226319455e-02
8.027690603058972030e-02
8.007929623277199038e-02
7.988266727495078878e-02
7.968701187615344350e-02
7.949232282743828870e-02
7.929859299104852211e-02
7.910581529956549340e-02
7.891398275505903670e-02
7.872308842823098896e-02
7.853312545755783414e-02
7.834408704843852378e-02
7.815596647235448224e-02
7.796875706604995682e-02
7.778245223073573800e-02
7.759704543131822063e-02
7.741253019565130788e-02
7.722890011380499631e-02
7.704614883734525743e-02
7.686427007861697247e-02
7.668325761002421637e-02
7.650310526330569849e-02
7.632380692880395834e-02
7.614535655473297915e-02
7.596774814644982610e-02
7.579097576573584627e-02
7.561503353009467465e-02
7.543991561207054330e-02
7.526561623858940564e-02
7.509212969032309781e-02
7.491945030107431680e-02
7.474757245718047227e-02
7.457649059693348403e-02
7.440619921001116743e-02
7.423669283691729237e-02
7.406796606842641628e-02
7.390001354503066000e-02
7.373282995638508197e-02
7.356641004075122059e-02
7.340074858443856876e-02
7.323584042124586801e-02
7.307168043190448437e-02
7.290826354352775152e-02
7.274558472906771101e-02
7.258363900678464764e-02
7.242242143972767165e-02
7.226192713522913702e-02
7.210215124441091139e-02
7.194308896170197032e-02
7.178473552436426264e-02
7.162708621202698578e-02
7.147013634622580158e-02
7.131388128994660403e-02
7.115831644717263149e-02
7.100343726243422970e-02
7.084923922036044652e-02
7.069571784523154268e-02
7.054286870053438907e-02
7.039068738852001517e-02
7.023916954976529292e-02
7.008831086274283639e-02
6.993810704339907536e-02
6.978855384474474954e-02
6.963964705645896147e-02
6.949138250450453969e-02
6.934375605075636384e-02
6.919676359263776666e-02
6.905040106276209844e-02
6.890466442857866303e-02
6.875954969201751588e-02
6.861505288913226364e-02
6.847117008974125396e-02
6.832789739706414400e-02
6.818523094735647050e-02
6.804316690954333169e-02
6.790170148485315249e-02
6.776083090645484974e-02
6.762055143909979915e-02
6.748085937877087992e-02
6.734175105233805581e-02
6.720322281722405922e-02
6.706527106107805503e-02
6.692789220145778373e-02
6.679108268552148842e-02
6.665483898972714150e-02
6.651915761954059481e-02
6.638403510914976657e-02
6.624946802118543421e-02
6.611545294644560755e-02
6.598198650362238626e-02
6.584906533902976089e-02
6.571668612633034534e-02
6.558484556626177631e-02
6.545354038636182203e-02
6.532276734069421276e-02
6.519252320957549807e-02
6.506280479930506844e-02
6.493360894189888211e-02
6.480493249482804918e-02
6.467677234076195381e-02
6.454912538731495675e-02
6.442198856679856589e-02
6.429535883597581325e-02
6.416923317581968433e-02
6.404360859127435079e-02
6.391848211101879007e-02
6.379385078723251445e-02
6.366971169536267405e-02
6.354606193389158997e-02
6.342289862410455115e-02
6.330021890985815247e-02
6.317801995734832754e-02
6.305629895488121250e-02
6.293505311264573077e-02
6.281427966249060468e-02
6.269397585770723758e-02
6.257413897281816073e-02
6.245476630337240542e-02
6.233585516574703667e-02
6.221740289695460585e-02
6.209940685445528019e-02
6.198186441597178936e-02
6.186477297930748076e-02
6.174812996216487437e-02
6.163193280196487683e-02
6.151617895566575955e-02
6.140086589958183155e-02
6.128599112920103675e-02
6.117155215900282189e-02
6.105754652227546320e-02
6.094397177093444778e-02
6.083082547534131995e-02
6.071810522412494915e-02
6.060580862400499758e-02
6.049393329961879479e-02
6.038247689335100865e-02
6.027143706516680660e-02
6.016081149244892345e-02
6.005059786983709541e-02
5.994079390906967980e-02
5.983139733882839040e-02
5.972240590458312987e-02
5.961381736843872348e-02
5.950562950898152098e-02
5.939784012112731687e-02
5.929044701596927064e-02
5.918344802062759646e-02
5.907684097810018270e-02
5.897062374711519589e-02
5.886479420198705709e-02
5.875935023247351452e-02
5.865428974363611631e-02
5.854961065570294526e-02
5.844531090393331046e-02
5.834138843848412498e-02
5.823784122427842075e-02
5.813466724087413412e-02
5.803186448233513262e-02
5.792943095710216539e-02
5.782736468786561779e-02
5.772566371143810632e-02
5.762432607862816997e-02
5.752334985411466234e-02
5.742273311632157401e-02
5.732247395729367367e-02
5.722257048257308604e-02
5.712302081107703544e-02
5.702382307497645686e-02
5.692497541957669549e-02
5.682647600319913617e-02
5.672832299706562220e-02
5.663051458518447712e-02
5.653304896423825415e-02
5.643592434347477482e-02
5.633913894459914584e-02
5.624269100166853080e-02
5.614657876098756023e-02
5.605080048100602452e-02
5.595535443221547056e-02
5.586023889704777590e-02
5.576545216977243924e-02
5.567099255639408606e-02
5.557685837455021705e-02
5.548304795340884554e-02
5.538955963356751583e-02
5.529639176695306385e-02
5.520354271672374413e-02
5.511101085717268200e-02
5.501879457363354625e-02
5.492689226238851169e-02
5.483530233057713060e-02
5.474402319610718881e-02
5.465305328756601966e-02
5.456239104413308783e-02
5.447203491549226090e-02
5.438198336174495523e-02
5.429223485332286547e-02
5.420278787090126310e-02
5.411364090531196880e-02
5.402479245745753916e-02
5.393624103822523136e-02
5.384798516840207799e-02
5.376002337859114161e-02
5.367235420912809529e-02
5.358497621000025274e-02
5.349788794076518889e-02
5.341108797047276063e-02
5.332457487758660714e-02
5.323834724990870321e-02
5.315240368450364905e-02
5.306674278762502778e-02
5.298136317464227640e-02
5.289626346996845196e-02
5.281144230698764375e-02
5.272689832798374554e-02
5.264263018406879074e-02
5.255863653511132910e-02
5.247491604966496997e-02
5.239146740489741133e-02
5.230828928651902465e-02
5.222538038871193944e-02
5.214273941405972446e-02
5.206036507347759634e-02
5.197825608614325271e-02
5.189641117942916243e-02
5.181482908883561223e-02
5.173350855792543251e-02
5.165244833825988202e-02
5.157164718933576752e-02
5.149110387852372239e-02
5.141081718100722758e-02
5.133078587972260409e-02
5.125100876529908173e-02
5.117148463599976993e-02
5.109221229766210126e-02
5.101319056363885773e-02
5.093441825473928736e-02
5.085589419917076193e-02
5.077761723248009479e-02
5.069958619749545536e-02
5.062179994426935226e-02
5.054425733002099186e-02
5.046695721908007332e-02
5.038989848283084022e-02
5.031307999965642375e-02
5.023650065488478172e-02
5.016015934073432547e-02
5.008405495626057358e-02
5.000818640730390202e-02
4.993255260643746085e-02
4.985715247291586799e-02
4.978198493262429858e-02
4.970704891802860126e-02
4.963234336812490100e-02
4.955786722839047170e-02
4.948361945073401214e-02
4.940959899344678219e-02
4.933580482115373228e-02
4.926223590476471598e-02
4.918889122142655612e-02
4.911576975447502769e-02
4.904287049338745819e-02
4.897019243373591096e-02
4.889773457714120114e-02
4.882549593122734177e-02
4.875347550957615655e-02
4.868167233168373825e-02
4.861008542291640755e-02
4.853871381446783762e-02
4.846755654331585256e-02
4.839661265218086345e-02
4.832588118948335371e-02
4.825536120930174616e-02
4.818505177133083212e-02
4.811495194084026289e-02
4.804506078863306912e-02
4.797537739100406207e-02
4.790590082969940072e-02
4.783663019187583965e-02
4.776756457006052503e-02
4.769870306211063810e-02
4.763004477117459279e-02
4.756158880565220654e-02
4.749333427915615469e-02
4.742528031047375109e-02
4.735742602352844416e-02
4.728977054734291585e-02
4.722231301600113285e-02
4.715505256861273614e-02
4.708798834927608451e-02
4.702111950704258858e-02
4.695444519588178045e-02
4.688796457464602246e-02
4.682167680703581969e-02
4.675558106156531973e-02
4.668967651152836074e-02
4.662396233496373527e-02
4.655843771462166159e-02
4.649310183792941531e-02
4.642795389695752312e-02
4.636299308838651850e-02
4.629821861347320489e-02
4.623362967801770973e-02
4.616922549233101053e-02
4.610500527120258568e-02
4.604096823386850251e-02
4.597711360398005348e-02
4.591344060957281564e-02
4.584994848303552278e-02
4.578663646108036001e-02
4.572350378471225218e-02
4.566054969919926265e-02
4.559777345404281840e-02
4.553517430294833773e-02
4.547275150379567754e-02
4.541050431861037157e-02
4.534843201353419562e-02
4.528653385879680832e-02
4.522480912868672570e-02
4.516325710152357259e-02
4.510187705962917515e-02
4.504066828930061717e-02
4.497963008078169345e-02
4.491876172823629915e-02
4.485806252972109054e-02
4.479753178715819434e-02
4.473716880630933951e-02
4.467697289674925354e-02
4.461694337183972486e-02
4.455707954870349874e-02
4.449738074819942907e-02
4.443784629489663796e-02
4.437847551704979243e-02
4.431926774657400647e-02
4.426022231902038140e-02
4.420133857355091483e-02
4.414261585291447132e-02
4.408405350342228107e-02
4.402565087492359142e-02
4.396740732078147779e-02
4.390932219784902946e-02
4.385139486644513973e-02
4.379362469033133698e-02
4.373601103668770668e-02
4.367855327609034694e-02
4.362125078248819260e-02
4.356410293318046384e-02
4.350710910879414944e-02
4.345026869326246849e-02
4.339358107380255486e-02
4.333704564089398137e-02
4.328066178825728388e-02
4.322442891283283933e-02
4.316834641475898737e-02
4.311241369735193535e-02
4.305663016708383140e-02
4.300099523356226000e-02
4.294550830950955023e-02
4.289016881074192433e-02
4.283497615614908355e-02
4.277992976767395344e-02
4.272502907029231828e-02
4.267027349199313535e-02
4.261566246375870365e-02
4.256119541954492269e-02
4.250687179626225914e-02
4.245269103375595710e-02
4.239865257478770549e-02
4.234475586501602190e-02
4.229100035297757992e-02
4.223738549006902238e-02
4.218391073052762258e-02
4.213057553141339590e-02
4.207737935259062839e-02
4.202432165670975245e-02
4.197140190918953462e-02
4.191861957819910389e-02
4.186597413464040324e-02
4.181346505213060644e-02
4.176109180698479167e-02
4.170885387819862899e-02
4.165675074743134532e-02
4.160478189898905721e-02
4.155294681980700039e-02
4.150124499943398659e-02
4.144967593001507022e-02
4.139823910627561665e-02
4.134693402550469743e-02
4.129576018753928351e-02
4.124471709474773762e-02
4.119380425201471518e-02
4.114302116672461512e-02
4.109236734874617547e-02
4.104184231041647923e-02
4.099144556652603577e-02
4.094117663430241194e-02
4.089103503339525797e-02
4.084102028586115984e-02
4.079113191614786027e-02
4.074136945107944413e-02
4.069173241984159334e-02
4.064222035396634902e-02
4.059283278731799782e-02
4.054356925607777162e-02
4.049442929873040692e-02
4.044541245604948293e-02
4.039651827108296789e-02
4.034774628914024330e-02
4.029909605777728249e-02
4.025056712678350135e-02
4.020215904816761693e-02
4.015387137614436636e-02
4.010570366712082335e-02
4.005765547968268003e-02
4.000972637458116710e-02
3.996191591471961319e-02
3.991422366513984465e-02
3.986664919300977883e-02
3.981919206760980295e-02
3.977185186032015929e-02
3.972462814460826080e-02
3.967752049601562525e-02
3.963052849214586393e-02
3.958365171265151861e-02
3.953688973922244582e-02
3.949024215557274398e-02
3.944370854742911686e-02
3.939728850251834197e-02
3.935098161055511357e-02
3.930478746323051026e-02
3.925870565419960906e-02
3.921273577906966845e-02
3.916687743538863065e-02
3.912113022263322831e-02
3.907549374219732030e-02
3.902996759738039390e-02
3.898455139337674014e-02
3.893924473726331076e-02
3.889404723798926128e-02
3.884895850636450182e-02
3.880397815504888631e-02
3.875910579854113108e-02
3.871434105316843427e-02
3.866968353707511685e-02
3.862513287021227676e-02
3.858068867432722093e-02
3.853635057295258515e-02
3.849211819139585627e-02
3.844799115672898476e-02
3.840396909777826079e-02
3.836005164511312876e-02
3.831623843103675042e-02
3.827252908957525651e-02
3.822892325646796985e-02
3.818542056915714272e-02
3.814202066677801345e-02
3.809872319014900172e-02
3.805552778176171658e-02
3.801243408577160282e-02
3.796944174798796284e-02
3.792655041586438791e-02
3.788375973848946698e-02
3.784106936657706532e-02
3.779847895245729700e-02
3.775598815006665082e-02
3.771359661493942778e-02
3.767130400419789471e-02
3.762910997654335399e-02
3.758701419224713680e-02
3.754501631314145077e-02
3.750311600261041489e-02
3.746131292558119164e-02
3.741960674851500107e-02
3.737799713939857910e-02
3.733648376773517769e-02
3.729506630453622434e-02
3.725374442231275257e-02
3.721251779506649232e-02
3.717138609828216089e-02
3.713034900891840767e-02
3.708940620539982053e-02
3.704855736760876567e-02
3.700780217687666546e-02
3.696714031597630318e-02
3.692657146911334370e-02
3.688609532191840235e-02
3.684571156143864185e-02
3.680541987613016736e-02
3.676521995585001201e-02
3.672511149184763679e-02
3.668509417675812345e-02
3.664516770459348011e-02
3.660533177073546640e-02
3.656558607192772481e-02
3.652593030626814091e-02
3.648636417320150205e-02
3.644688737351184371e-02
3.640749960931497636e-02
3.636820058405117184e-02
3.632899000247777344e-02
3.628986757066195862e-02
3.625083299597332137e-02
3.621188598707680839e-02
3.617302625392567611e-02
3.613425350775383710e-02
3.609556746106950403e-02
3.605696782764794550e-02
3.601845432252415852e-02
3.598002666198637373e-02
3.594168456356910957e-02
3.590342774604630971e-02
3.586525592942448049e-02
3.582716883493630711e-02
3.578916618503336089e-02
3.575124770338003466e-02
3.571341311484672182e-02
3.567566214550279419e-02
3.563799452261087741e-02
3.560040997461955820e-02
3.556290823115746541e-02
3.552548902302627570e-02
3.548815208219511380e-02
3.545089714179332219e-02
3.541372393610490305e-02
3.537663220056170427e-02
3.533962167173752139e-02
3.530269208734199832e-02
3.526584318621418801e-02
3.522907470831677934e-02
3.519238639472983821e-02
3.515577798764501355e-02
3.511924923035964624e-02
3.508279986727055877e-02
3.504642964386860821e-02
3.501013830673245508e-02
3.497392560352310248e-02
3.493779128297801878e-02
3.490173509490542697e-02
3.486575679017874657e-02
3.482985612073058457e-02
3.479403283954751042e-02
3.475828670066417880e-02
3.472261745915802833e-02
3.468702487114359856e-02
3.465150869376696502e-02
3.461606868520034075e-02
3.458070460463696927e-02
3.454541621228519876e-02
3.451020326936368038e-02
3.447506553809553953e-02
3.444000278170343543e-02
3.440501476440423201e-02
3.437010125140365496e-02
3.433526200889117780e-02
3.430049680403501194e-02
3.426580540497675686e-02
3.423118758082620977e-02
3.419664310165682758e-02
3.416217173849983579e-02
3.412777326334020395e-02
3.409344744911093489e-02
3.405919406968831165e-02
3.402501289988744959e-02
3.399090371545664818e-02
3.395686629307340804e-02
3.392290041033905329e-02
3.388900584577415193e-02
3.385518237881388753e-02
3.382142978980320902e-02
3.378774785999235503e-02
3.375413637153210772e-02
3.372059510746903271e-02
3.368712385174112145e-02
3.365372238917289233e-02
3.362039050547126207e-02
3.358712798722059134e-02
3.355393462187847287e-02
3.352081019777098519e-02
3.348775450408866122e-02
3.345476733088151300e-02
3.342184846905513901e-02
3.338899771036622777e-02
3.335621484741805448e-02
3.332349967365620669e-02
3.329085198336469847e-02
3.325827157166100223e-02
3.322575823449257226e-02
3.319331176863227206e-02
3.316093197167407219e-02
3.312861864202942819e-02
3.309637157892255516e-02
3.306419058238682651e-02
3.303207545326042327e-02
3.300002599318230256e-02
3.296804200458844369e-02
3.293612329070746969e-02
3.290426965555691419e-02
3.287248090393918992e-02
3.284075684143757112e-02
3.280909727441257834e-02
3.277750200999791919e-02
3.274597085609654706e-02
3.271450362137690027e-02
3.268310011526929376e-02
3.265176014796198484e-02
3.262048353039732895e-02
3.258927007426810907e-02
3.255811959201401068e-02
3.252703189681750706e-02
3.249600680260060492e-02
3.246504412402093087e-02
3.243414367646809543e-02
3.240330527606033462e-02
3.237252873964045763e-02
3.234181388477276597e-02
3.231116052973916769e-02
3.228056849353578422e-02
3.225003759586936997e-02
3.221956765715412035e-02
3.218915849850764038e-02
3.215880994174807883e-02
3.212852180939032576e-02
3.209829392464285530e-02
3.206812611140420072e-02
3.203801819425968617e-02
3.200796999847786706e-02
3.197798135000749081e-02
3.194805207547403436e-02
3.191818200217617224e-02
3.188837095808314676e-02
3.185861877183070873e-02
3.182892527271839744e-02
3.179929029070647367e-02
3.176971365641220041e-02
3.174019520110701875e-02
3.171073475671334213e-02
3.168133215580145462e-02
3.165198723158626354e-02
3.162269981792446838e-02
3.159346974931102198e-02
3.156429686087655617e-02
3.153518098838411360e-02
3.150612196822604599e-02
3.147711963742109292e-02
3.144817383361151603e-02
3.141928439505983078e-02
3.139045116064601015e-02
3.136167396986477840e-02
3.133295266282208613e-02
3.130428708023272333e-02
3.127567706341736337e-02
3.124712245429938501e-02
3.121862309540223215e-02
3.119017882984676665e-02
3.116178950134777109e-02
3.113345495421195736e-02
3.110517503333469491e-02
3.107694958419728037e-02
3.104877845286422092e-02
3.102066148598048648e-02
3.099259853076885909e-02
3.096458943502699429e-02
3.093663404712501674e-02
3.090873221600245677e-02
3.088088379116606455e-02
3.085308862268661134e-02
3.082534656119678002e-02
3.079765745788808420e-02
3.077002116450858193e-02
3.074243753336011048e-02
3.071490641729558366e-02
3.068742766971682343e-02
3.066000114457144432e-02
3.063262669635100771e-02
3.060530418008781950e-02
3.057803345135295947e-02
3.055081436625334615e-02
3.052364678142963778e-02
3.049653055405352961e-02
3.046946554182525593e-02
3.044245160297128980e-02
3.041548859624199422e-02
3.038857638090878069e-02
3.036171481676214895e-02
3.033490376410916817e-02
3.030814308377080546e-02
3.028143263708004546e-02
3.025477228587922576e-02
3.022816189251768468e-02
3.020160131984969687e-02
3.017509043123173945e-02
3.014862909052052481e-02
3.012221716207086689e-02
3.009585451073297155e-02
3.006954100185032022e-02
3.004327650125764027e-02
3.001706087527860126e-02
2.999089399072335169e-02
2.996477571488649280e-02
2.993870591554495184e-02
2.991268446095552216e-02
2.988671121985291695e-02
2.986078606144762851e-02
2.983490885542350313e-02
2.980907947193597168e-02
2.978329778160961755e-02
2.975756365553601165e-02
2.973187696527215818e-02
2.970623758283762877e-02
2.968064538071308114e-02
2.965510023183790325e-02
2.962960200960811086e-02
2.960415058787458503e-02
2.957874584094070253e-02
2.955338764356053513e-02
2.952807587093679922e-02
2.950281039871871167e-02
2.947759110300034527e-02
2.945241786031802672e-02
2.942729054764907370e-02
2.940220904240924485e-02
2.937717322245124094e-02
2.935218296606221383e-02
2.932723815196251749e-02
2.930233865930316831e-02
2.927748436766439838e-02
2.925267515705336566e-02
2.922791090790255106e-02
2.920319150106772191e-02
2.917851681782614170e-02
2.915388673987453702e-02
2.912930114932761258e-02
2.910475992871579612e-02
2.908026296098369448e-02
2.905581012948818195e-02
2.903140131799657880e-02
2.900703641068485064e-02
2.898271529213569675e-02
2.895843784733704088e-02
2.893420396167994610e-02
2.891001352095701540e-02
2.888586641136069513e-02
2.886176251948134250e-02
2.883770173230549086e-02
2.881368393721439949e-02
2.878970902198206908e-02
2.876577687477361797e-02
2.874188738414361344e-02
2.871804043903432302e-02
2.869423592877393125e-02
2.867047374307521782e-02
2.864675377203356951e-02
2.862307590612536701e-02
2.859944003620630906e-02
2.857584605351003171e-02
2.855229384964616882e-02
2.852878331659898514e-02
2.850531434672527037e-02
2.848188683275344746e-02
2.845850066778149792e-02
2.843515574527532772e-02
2.841185195906751476e-02
2.838858920335543892e-02
2.836536737269982136e-02
2.834218636202331248e-02
2.831904606660863924e-02
2.829594638209739083e-02
2.827288720448802029e-02
2.824986843013509857e-02
2.822688995574684778e-02
2.820395167838437092e-02
2.818105349545975760e-02
2.815819530473473789e-02
2.813537700431929800e-02
2.811259849266980679e-02
2.808985966858795064e-02
2.806716043121918955e-02
2.804450068005122712e-02
2.802188031491227582e-02
2.799929923597035616e-02
2.797675734373090972e-02
2.795425453903619545e-02
2.793179072306354455e-02
2.790936579732377146e-02
2.788697966366003936e-02
2.786463222424632666e-02
2.784232338158604964e-02
2.782005303851071629e-02
2.779782109817857325e-02
2.777562746407296126e-02
2.775347204000153806e-02
2.773135473009426949e-02
2.770927543880258997e-02
2.768723407089758101e-02
2.766523053146908995e-02
2.764326472592420342e-02
2.762133655998583529e-02
2.759944593969160948e-02
2.757759277139230913e-02
2.755577696175087743e-02
2.753399841774083548e-02
2.751225704664508886e-02
2.749055275605477924e-02
2.746888545386775779e-02
2.744725504828758947e-02
2.742566144782179749e-02
2.740410456128147473e-02
2.738258429777908065e-02
2.736110056672763635e-02
2.733965327783962479e-02
2.731824234112549890e-02
2.729686766689252628e-02
2.727552916574359221e-02
2.725422674857600966e-02
2.723296032658014537e-02
2.721172981123845883e-02
2.719053511432427406e-02
2.716937614790019065e-02
2.714825282431751474e-02
2.712716505621463187e-02
2.710611275651596264e-02
2.708509583843069293e-02
2.706411421545208695e-02
2.704316780135548881e-02
2.702225651019794783e-02
2.700138025631661914e-02
2.698053895432775059e-02
2.695973251912571825e-02
2.693896086588165595e-02
2.691822391004241449e-02
2.689752156732934732e-02
2.687685375373766172e-02
2.685622038553440658e-02
2.683562137925836130e-02
2.681505665171825259e-02
2.679452611999189743e-02
2.677402970142523167e-02
2.675356731363101592e-02
2.673313887448778084e-02
2.671274430213902915e-02
2.669238351499180970e-02
2.667205643171568011e-02
2.665176297124211002e-02
2.663150305276278454e-02
2.661127659572902482e-02
2.659108351985064664e-02
2.657092374509479812e-02
2.655079719168502647e-02
2.653070378010018854e-02
2.651064343107353491e-02
2.649061606559167947e-02
2.647062160489348573e-02
2.645065997046925146e-02
2.643073108405936261e-02
2.641083486765382835e-02
2.639097124349071288e-02
2.637114013405558038e-02
2.635134146208023553e-02
2.633157515054203660e-02
2.631184112266272274e-02
2.629213930190717891e-02
2.627246961198309236e-02
2.625283197683950243e-02
2.623322632066612051e-02
2.621365256789213657e-02
2.619411064318553570e-02
2.617460047145187679e-02
2.615512197783364037e-02
2.613567508770912873e-02
2.611625972669135570e-02
2.609687582062768588e-02
2.607752329559830801e-02
2.605820207791575277e-02
2.603891209412363336e-02
2.601965327099605915e-02
2.600042553553644567e-02
2.598122881497684847e-02
2.596206303677707494e-02
2.594292812862344227e-02
2.592382401842845130e-02
2.590475063432928771e-02
2.588570790468743346e-02
2.586669575808761903e-02
2.584771412333701501e-02
2.582876292946412536e-02
2.580984210571837453e-02
2.579095158156876136e-02
2.577209128670335248e-02
2.575326115102826233e-02
2.573446110466677192e-02
2.571569107795882575e-02
2.569695100145961281e-02
2.567824080593955269e-02
2.565956042238254353e-02
2.564090978198577120e-02
2.562228881615859211e-02
2.560369745652184281e-02
2.558513563490700388e-02
2.556660328335548515e-02
2.554810033411761272e-02
2.552962671965192804e-02
2.551118237262449753e-02
2.549276722590783362e-02
2.547438121258050261e-02
2.545602426592580639e-02
2.543769631943166784e-02
2.541939730678926743e-02
2.540112716189253661e-02
2.538288581883741540e-02
2.536467321192103358e-02
2.534648927564053453e-02
2.532833394469341526e-02
2.531020715397550372e-02
2.529210883858064654e-02
2.527403893380057026e-02
2.525599737512323681e-02
2.523798409823267003e-02
2.521999903900795301e-02
2.520204213352241970e-02
2.518411331804331146e-02
2.516621252903051068e-02
2.514833970313640199e-02
2.513049477720449495e-02
2.511267768826943789e-02
2.509488837355545315e-02
2.507712677047641350e-02
2.505939281663464510e-02
2.504168644982046610e-02
2.502400760801118743e-02
2.500635622937069646e-02
2.498873225224882907e-02
2.497113561518024549e-02
2.495356625688411809e-02
2.493602411626322929e-02
2.491850913240352405e-02
2.490102124457310370e-02
2.488356039222189633e-02
2.486612651498066109e-02
2.484871955266037408e-02
2.483133944525174261e-02
2.481398613292451483e-02
2.479665955602653599e-02
2.477935965508330438e-02
2.476208637079734334e-02
2.474483964404761496e-02
2.472761941588835430e-02
2.471042562754909022e-02
2.469325822043352478e-02
2.467611713611918625e-02
2.465900231635681505e-02
2.464191370306919801e-02
2.462485123835117182e-02
2.460781486446868629e-02
2.459080452385802029e-02
2.457382015912565332e-02
2.455686171304699572e-02
2.453992912856633665e-02
2.452302234879597670e-02
2.450614131701557216e-02
2.448928597667151402e-02
2.447245627137652549e-02
2.445565214490850320e-02
2.443887354121062130e-02
2.442212040439059248e-02
2.440539267871946749e-02
2.438869030863182602e-02
2.437201323872450337e-02
2.435536141375658353e-02
2.433873477864816406e-02
2.432213327848042547e-02
2.430555685849460773e-02
2.428900546409176048e-02
2.427247904083178892e-02
2.425597753443297505e-02
2.423950089077181805e-02
2.422304905588199345e-02
2.420662197595351006e-02
2.419021959733301530e-02
2.417384186652264677e-02
2.415748873017950146e-02
2.414116013511539635e-02
2.412485602829569920e-02
2.410857635683955058e-02
2.409232106801842063e-02
2.407609010925656698e-02
2.405988342812952555e-02
2.404370097236428749e-02
2.402754268983830696e-02
2.401140852857929289e-02
2.399529843676435903e-02
2.397921236271957635e-02
2.396315025491970938e-02
2.394711206198712333e-02
2.393109773269192983e-02
2.391510721595084890e-02
2.389914046082710145e-02
2.388319741652972228e-02
2.386727803241314727e-02
2.385138225797646047e-02
2.383551004286302288e-02
2.381966133685997286e-02
2.380383608989764671e-02
2.378803425204924563e-02
2.377225577353021813e-02
2.375650060469766331e-02
2.374076869604976187e-02
2.372505999822578995e-02
2.370937446200474183e-02
2.369371203830581904e-02
2.367807267818695938e-02
2.366245633284539893e-02
2.364686295361607266e-02
2.363129249197216258e-02
2.361574489952380368e-02
2.360022012801796590e-02
2.358471812933799275e-02
2.356923885550290046e-02
2.355378225866723227e-02
2.353834829112028473e-02
2.352293690528580242e-02
2.350754805372155462e-02
2.349218168911863108e-02
2.347683776430102912e-02
2.346151623222535523e-02
2.344621704598024575e-02
2.343094015878588107e-02
2.341568552399385383e-02
2.340045309508601012e-02
2.338524282567474438e-02
2.337005466950201407e-02
2.335488858043908642e-02
2.333974451248614981e-02
2.332462241977162690e-02
2.330952225655228555e-02
2.329444397721196561e-02
2.327938753626202992e-02
2.326435288834010143e-02
2.324933998820991055e-02
2.323434879076146514e-02
2.321937925100938868e-02
2.320443132409373208e-02
2.318950496527882876e-02
2.317460012995318022e-02
2.315971677362850187e-02
2.314485485193989653e-02
2.313001432064517443e-02
2.311519513562441605e-02
2.310039725287964599e-02
2.308562062853444091e-02
2.307086521883323915e-02
2.305613098014125395e-02
2.304141786894384550e-02
2.302672584184608032e-02
2.301205485557262370e-02
2.299740486696689665e-02
2.298277583299119034e-02
2.296816771072572247e-02
2.295358045736858865e-02
2.293901403023510324e-02
2.292446838675770218e-02
2.290994348448534973e-02
2.289543928108304927e-02
2.288095573433172880e-02
2.286649280212761301e-02
2.285205044248191097e-02
2.283762861352053516e-02
2.282322727348332081e-02
2.280884638072398427e-02
2.279448589370985240e-02
2.278014577102119645e-02
2.276582597135090938e-02
2.275152645350408953e-02
2.273724717639781859e-02
2.272298809906072789e-02
2.270874918063228373e-02
2.269453038036310308e-02
2.268033165761386763e-02
2.266615297185560138e-02
2.265199428266866447e-02
2.263785554974271849e-02
2.262373673287649059e-02
2.260963779197705525e-02
2.259555868705969903e-02
2.258149937824758396e-02
2.256745982577120987e-02
2.255343998996826860e-02
2.253943983128304726e-02
2.252545931026633808e-02
2.251149838757472710e-02
2.249755702397055954e-02
2.248363518032147831e-02
2.246973281760004243e-02
2.245584989688350838e-02
2.244198637935331322e-02
2.242814222629473803e-02
2.241431739909655746e-02
2.240051185925079694e-02
2.238672556835242036e-02
2.237295848809893115e-02
2.235921058028977199e-02
2.234548180682647753e-02
2.233177212971200129e-02
2.231808151105030627e-02
2.230440991304628515e-02
2.229075729800528149e-02
2.227712362833285387e-02
2.226350886653427272e-02
2.224991297521458980e-02
2.223633591707751059e-02
2.222277765492600143e-02
2.220923815166130424e-02
2.219571737028285668e-02
2.218221527388807360e-02
2.216873182567181966e-02
2.215526698892632262e-02
2.214182072704038232e-02
2.212839300349964122e-02
2.211498378188581776e-02
2.210159302587662994e-02
2.208822069924550741e-02
2.207486676586117164e-02
2.206153118968728552e-02
2.204821393478207520e-02
2.203491496529846536e-02
2.202163424548297596e-02
2.200837173967629817e-02
2.199512741231250679e-02
2.198190122791855369e-02
2.196869315111462870e-02
2.195550314661314298e-02
2.194233117921896847e-02
2.192917721382850113e-02
2.191604121543031664e-02
2.190292314910399080e-02
2.188982298002020363e-02
2.187674067344045833e-02
2.186367619471668231e-02
2.185062950929083508e-02
2.183760058269481122e-02
2.182458938055009678e-02
2.181159586856742244e-02
2.179862001254664894e-02
2.178566177837612527e-02
2.177272113203286563e-02
2.175979803958171324e-02
2.174689246717554161e-02
2.173400438105466473e-02
2.172113374754696194e-02
2.170828053306702796e-02
2.169544470411633591e-02
2.168262622728268571e-02
2.166982506924008262e-02
2.165704119674848049e-02
2.164427457665311569e-02
2.163152517588517315e-02
2.161879296146033275e-02
2.160607790047938681e-02
2.159337996012752545e-02
2.158069910767410407e-02
2.156803531047254627e-02
2.155538853595984072e-02
2.154275875165675980e-02
2.153014592516683257e-02
2.151755002417687218e-02
2.150497101645602177e-02
2.149240886985594179e-02
2.147986355231027225e-02
2.146733503183461192e-02
2.145482327652636564e-02
2.144232825456392558e-02
2.142984993420687934e-02
2.141738828379581572e-02
2.140494327175144693e-02
2.139251486657520879e-02
2.138010303684839339e-02
2.136770775123226010e-02
2.135532897846735556e-02
2.134296668737369410e-02
2.133062084685023382e-02
2.131829142587484890e-02
2.130597839350387851e-02
2.129368171887188743e-02
2.128140137119160363e-02
2.126913731975356089e-02
2.125688953392574493e-02
2.124465798315355175e-02
2.123244263695925685e-02
2.122024346494221295e-02
2.120806043677835387e-02
2.119589352221969494e-02
2.118374269109464178e-02
2.117160791330724434e-02
2.115948915883734613e-02
2.114738639773995621e-02
2.113529960014554412e-02
2.112322873625931824e-02
2.111117377636121187e-02
2.109913469080568552e-02
2.108711145002114054e-02
2.107510402451020018e-02
2.106311238484935913e-02
2.105113650168827233e-02
2.103917634575033779e-02
2.102723188783172520e-02
2.101530309880152853e-02
2.100338994960130809e-02
2.099149241124522933e-02
2.097961045481960482e-02
2.096774405148251960e-02
2.095589317246403585e-02
2.094405778906547472e-02
2.093223787265958979e-02
2.092043339469002936e-02
2.090864432667135370e-02
2.089687064018880616e-02
2.088511230689804252e-02
2.087336929852464176e-02
2.086164158686455022e-02
2.084992914378313439e-02
2.083823194121525377e-02
2.082654995116541355e-02
2.081488314570698051e-02
2.080323149698231483e-02
2.079159497720235381e-02
2.077997355864656670e-02
2.076836721366273272e-02
2.075677591466649693e-02
2.074519963414157495e-02
2.073363834463917005e-02
2.072209201877812240e-02
2.071056062924414576e-02
2.069904414879016052e-02
2.068754255023584968e-02
2.067605580646754079e-02
2.066458389043794586e-02
2.065312677516609186e-02
2.064168443373688364e-02
2.063025683930087839e-02
2.061884396507451117e-02
2.060744578433932814e-02
2.059606227044233004e-02
2.058469339679531995e-02
2.057333913687513574e-02
2.056199946422296310e-02
2.055067435244453330e-02
2.053936377520963058e-02
2.052806770625225166e-02
2.051678611937019295e-02
2.050551898842469314e-02
2.049426628734074551e-02
2.048302799010625480e-02
2.047180407077241540e-02
2.046059450345307992e-02
2.044939926232493266e-02
2.043821832162711141e-02
2.042705165566109995e-02
2.041589923879043658e-02
2.040476104544046085e-02
2.039363705009843847e-02
2.038252722731299232e-02
2.037143155169430370e-02
2.036034999791365083e-02
2.034928254070344014e-02
2.033822915485656094e-02
2.032718981522677743e-02
2.031616449672832281e-02
2.030515317433550723e-02
2.029415582308292942e-02
2.028317241806501178e-02
2.027220293443602120e-02
2.026124734740960415e-02
2.025030563225866873e-02
2.023937776431562752e-02
2.022846371897171411e-02
2.021756347167716003e-02
2.020667699794073680e-02
2.019580427332966568e-02
2.018494527346963510e-02
2.017409997404423505e-02
2.016326835079531796e-02
2.015245037952246090e-02
2.014164603608278870e-02
2.013085529639086629e-02
2.012007813641850454e-02
2.010931453219478790e-02
2.009856445980567202e-02
2.008782789539397678e-02
2.007710481515898732e-02
2.006639519535644359e-02
2.005569901229856469e-02
2.004501624235333068e-02
2.003434686194498562e-02
2.002369084755343392e-02
2.001304817571430278e-02
2.000241882301835930e-02
1.999180276611203094e-02
1.998119998169660752e-02
1.997061044652847367e-02
1.996003413741882782e-02
1.994947103123345666e-02
1.993892110489260336e-02
1.992838433537083911e-02
1.991786069969702505e-02
1.990735017495377790e-02
1.989685273827781695e-02
1.988636836685946790e-02
1.987589703794243393e-02
1.986543872882397602e-02
1.985499341685452099e-02
1.984456107943747410e-02
1.983414169402929889e-02
1.982373523813911811e-02
1.981334168932863404e-02
1.980296102521210411e-02
1.979259322345584132e-02
1.978223826177864103e-02
1.977189611795102109e-02
1.976156676979555146e-02
1.975125019518617075e-02
1.974094637204871008e-02
1.973065527836015062e-02
1.972037689214882483e-02
1.971011119149407992e-02
1.969985815452638886e-02
1.968961775942673978e-02
1.967938998442706269e-02
1.966917480780949398e-02
1.965897220790671987e-02
1.964878216310156703e-02
1.963860465182701298e-02
1.962843965256584611e-02
1.961828714385080441e-02
1.960814710426400306e-02
1.959801951243721543e-02
1.958790434705139430e-02
1.957780158683695634e-02
1.956771121057342133e-02
1.955763319708895415e-02
1.954756752526050009e-02
1.953751417401392021e-02
1.952747312232331472e-02
1.951744434921131102e-02
1.950742783374875833e-02
1.949742355505464445e-02
1.948743149229564819e-02
1.947745162468647595e-02
1.946748393148938980e-02
1.945752839201445039e-02
1.944758498561893062e-02
1.943765369170738500e-02
1.942773448973128536e-02
1.941782735918957947e-02
1.940793227962769874e-02
1.939804923063793290e-02
1.938817819185931560e-02
1.937831914297719407e-02
1.936847206372312516e-02
1.935863693387498627e-02
1.934881373325684703e-02
1.933900244173880623e-02
1.932920303923631178e-02
1.931941550571103158e-02
1.930963982116968430e-02
1.929987596566472979e-02
1.929012391929396664e-02
1.928038366220020602e-02
1.927065517457131685e-02
1.926093843664025002e-02
1.925123342868428900e-02
1.924154013102602478e-02
1.923185852403213117e-02
1.922218858811368392e-02
1.921253030372629261e-02
1.920288365136963923e-02
1.919324861158733589e-02
1.918362516496697687e-02
1.917401329213998945e-02
1.916441297378131126e-02
1.915482419060953595e-02
1.914524692338681958e-02
1.913568115291840524e-02
1.912612686005262658e-02
1.911658402568120266e-02
1.910705263073842960e-02
1.909753265620168020e-02
1.908802408309096324e-02
1.907852689246889583e-02
1.906904106544038066e-02
1.905956658315277955e-02
1.905010342679566357e-02
1.904065157760072638e-02
1.903121101684170785e-02
1.902178172583411653e-02
1.901236368593514289e-02
1.900295687854371487e-02
1.899356128510025846e-02
1.898417688708673237e-02
1.897480366602629157e-02
1.896544160348315536e-02
1.895609068106272541e-02
1.894675088041132896e-02
1.893742218321608356e-02
1.892810457120490050e-02
1.891879802614629402e-02
1.890950252984928415e-02
1.890021806416311914e-02
1.889094461097757388e-02
1.888168215222234617e-02
1.887243066986736204e-02
1.886319014592230392e-02
1.885396056243689861e-02
1.884474190150040376e-02
1.883553414524184039e-02
1.882633727582968750e-02
1.881715127547172600e-02
1.880797612641513933e-02
1.879881181094620463e-02
1.878965831139027196e-02
1.878051561011170531e-02
1.877138368951373690e-02
1.876226253203823122e-02
1.875315212016591751e-02
1.874405243641577221e-02
1.873496346334545259e-02
1.872588518355076947e-02
1.871681757966586063e-02
1.870776063436297917e-02
1.869871433035222297e-02
1.868967865038187806e-02
1.868065357723782197e-02
1.867163909374376998e-02
1.866263518276098030e-02
1.865364182718810132e-02
1.864465900996137640e-02
1.863568671405407481e-02
1.862672492247699485e-02
1.861777361827787747e-02
1.860883278454141324e-02
1.859990240438907233e-02
1.859098246097929188e-02
1.858207293750729905e-02
1.857317381720454200e-02
1.856428508333941851e-02
1.855540671921633578e-02
1.854653870817619607e-02
1.853768103359602556e-02
1.852883367888895003e-02
1.851999662750412542e-02
1.851116986292666855e-02
1.850235336867743843e-02
1.849354712831281083e-02
1.848475112542520560e-02
1.847596534364216725e-02
1.846718976662690276e-02
1.845842437807786521e-02
1.844966916172860114e-02
1.844092410134809748e-02
1.843218918074011545e-02
1.842346438374354786e-02
1.841474969423194039e-02
1.840604509611384540e-02
1.839735057333224955e-02
1.838866610986494843e-02
1.837999168972397415e-02
1.837132729695591798e-02
1.836267291564165974e-02
1.835402852989620470e-02
1.834539412386869753e-02
1.833676968174233896e-02
1.832815518773425051e-02
1.831955062609546062e-02
1.831095598111068257e-02
1.830237123709823124e-02
1.829379637841006129e-02
1.828523138943157281e-02
1.827667625458170853e-02
1.826813095831259989e-02
1.825959548510959485e-02
1.825106981949109475e-02
1.824255394600867927e-02
1.823404784924676988e-02
1.822555151382282412e-02
1.821706492438689498e-02
1.820858806562184948e-02
1.820012092224308070e-02
1.819166347899844188e-02
1.818321572066840600e-02
1.817477763206577779e-02
1.816634919803536766e-02
1.815793040345448084e-02
1.814952123323219230e-02
1.814112167230980122e-02
1.813273170566065406e-02
1.812435131828973173e-02
1.811598049523374665e-02
1.810761922156109774e-02
1.809926748237181832e-02
1.809092526279753449e-02
1.808259254800123964e-02
1.807426932317711052e-02
1.806595557355080220e-02
1.805765128437896577e-02
1.804935644094948083e-02
1.804107102858121259e-02
1.803279503262392863e-02
1.802452843845815320e-02
1.801627123149528512e-02
1.800802339717752498e-02
1.799978492097745186e-02
1.799155578839828351e-02
1.798333598497379657e-02
1.797512549626784431e-02
1.796692430787481809e-02
1.795873240541932814e-02
1.795054977455591214e-02
1.794237640096938216e-02
1.793421227037439447e-02
1.792605736851549114e-02
1.791791168116710700e-02
1.790977519413344127e-02
1.790164789324827019e-02
1.789352976437489154e-02
1.788542079340635360e-02
1.787732096626503883e-02
1.786923026890253202e-02
1.786114868729986316e-02
1.785307620746715007e-02
1.784501281544384477e-02
1.783695849729839689e-02
1.782891323912792758e-02
1.782087702705875340e-02
1.781284984724601159e-02
1.780483168587363232e-02
1.779682252915401261e-02
1.778882236332847075e-02
1.778083117466647614e-02
1.777284894946619051e-02
1.776487567405421117e-02
1.775691133478535938e-02
1.774895591804278791e-02
1.774100941023757511e-02
1.773307179780909612e-02
1.772514306722475924e-02
1.771722320497986711e-02
1.770931219759773120e-02
1.770141003162917226e-02
1.769351669365295393e-02
1.768563217027557116e-02
1.767775644813094488e-02
1.766988951388073423e-02
1.766203135421389250e-02
1.765418195584671224e-02
1.764634130552283561e-02
1.763850939001328916e-02
1.763068619611611251e-02
1.762287171065675395e-02
1.761506592048708159e-02
1.760726881248654910e-02
1.759948037356118267e-02
1.759170059064394526e-02
1.758392945069466723e-02
1.757616694069960572e-02
1.756841304767178119e-02
1.756066775865074495e-02
1.755293106070275264e-02
1.754520294092020913e-02
1.753748338642195301e-02
1.752977238435311780e-02
1.752206992188509033e-02
1.751437598621546562e-02
1.750669056456785611e-02
1.749901364419180830e-02
1.749134521236295897e-02
1.748368525638282697e-02
1.747603376357869179e-02
1.746839072130388498e-02
1.746075611693691937e-02
1.745312993788223146e-02
1.744551217156992823e-02
1.743790280545539501e-02
1.743030182701966677e-02
1.742270922376906728e-02
1.741512498323507380e-02
1.740754909297465361e-02
1.739998154056981300e-02
1.739242231362788174e-02
1.738487139978081922e-02
1.737732878668603667e-02
1.736979446202568250e-02
1.736226841350668390e-02
1.735475062886106257e-02
1.734724109584526858e-02
1.733973980224058631e-02
1.733224673585282219e-02
1.732476188451263430e-02
1.731728523607479336e-02
1.730981677841875871e-02
1.730235649944828272e-02
1.729490438709142125e-02
1.728746042930056834e-02
1.728002461405218557e-02
1.727259692934693738e-02
1.726517736320960089e-02
1.725776590368891319e-02
1.725036253885755405e-02
1.724296725681221873e-02
1.723558004567321902e-02
1.722820089358477469e-02
1.722082978871498568e-02
1.721346671925523542e-02
1.720611167342082568e-02
1.719876463945048742e-02
1.719142560560637037e-02
1.718409456017415404e-02
1.717677149146289162e-02
1.716945638780475319e-02
1.716214923755541438e-02
1.715485002909359485e-02
1.714755875082126652e-02
1.714027539116338636e-02
1.713299993856775422e-02
1.712573238150549501e-02
1.711847270847051752e-02
1.711122090797952133e-02
1.710397696857202804e-02
1.709674087881025983e-02
1.708951262727900766e-02
1.708229220258609959e-02
1.707507959336153000e-02
1.706787478825812915e-02
1.706067777595084850e-02
1.705348854513719786e-02
1.704630708453709273e-02
1.703913338289282653e-02
1.703196742896878960e-02
1.702480921155148999e-02
1.701765871944961248e-02
1.701051594149410179e-02
1.700338086653781222e-02
1.699625348345562212e-02
1.698913378114403488e-02
1.698202174852175839e-02
1.697491737452925045e-02
1.696782064812864949e-02
1.696073155830386467e-02
1.695365009406036433e-02
1.694657624442515512e-02
1.693950999844706651e-02
1.693245134519618181e-02
1.692540027376419551e-02
1.691835677326399348e-02
1.691132083282989584e-02
1.690429244161755634e-02
1.689727158880382704e-02
1.689025826358668894e-02
1.688325245518542544e-02
1.687625415284006725e-02
1.686926334581194398e-02
1.686228002338331991e-02
1.685530417485746682e-02
1.684833578955838990e-02
1.684137485683083121e-02
1.683442136604045708e-02
1.682747530657362905e-02
1.682053666783753579e-02
1.681360543925990159e-02
1.680668161028871579e-02
1.679976517039270464e-02
1.679285610906133472e-02
1.678595441580430295e-02
1.677906008015158518e-02
1.677217309165339801e-02
1.676529343988048329e-02
1.675842111442384444e-02
1.675155610489458685e-02
1.674469840092372361e-02
1.673784799216253283e-02
1.673100486828241543e-02
1.672416901897478755e-02
1.671734043395082386e-02
1.671051910294167955e-02
1.670370501569815383e-02
1.669689816199128665e-02
1.669009853161161627e-02
1.668330611436921393e-02
1.667652090009409324e-02
1.666974287863566204e-02
1.666297203986311440e-02
1.665620837366497270e-02
1.664945186994933740e-02
1.664270251864358521e-02
1.663596030969469175e-02
1.662922523306875275e-02
1.662249727875135877e-02
1.661577643674703661e-02
1.660906269707978014e-02
1.660235604979262009e-02
1.659565648494778362e-02
1.658896399262648619e-02
1.658227856292875113e-02
1.657560018597385026e-02
1.656892885189986675e-02
1.656226455086392407e-02
1.655560727304171073e-02
1.654895700862780983e-02
1.654231374783547009e-02
1.653567748089689038e-02
1.652904819806275127e-02
1.652242588960220818e-02
1.651581054580315844e-02
1.650920215697206095e-02
1.650260071343377655e-02
1.649600620553146740e-02
1.648941862362696131e-02
1.648283795810014107e-02
1.647626419934947531e-02
1.646969733779152928e-02
1.646313736386094406e-02
1.645658426801092228e-02
1.645003804071249950e-02
1.644349867245491204e-02
1.643696615374539566e-02
1.643044047510913361e-02
1.642392162708939188e-02
1.641740960024734922e-02
1.641090438516203467e-02
1.640440597243022353e-02
1.639791435266663502e-02
1.639142951650364444e-02
1.638495145459141489e-02
1.637848015759758857e-02
1.637201561620769616e-02
1.636555782112464677e-02
1.635910676306910269e-02
1.635266243277909426e-02
1.634622482101001986e-02
1.633979391853491656e-02
1.633336971614405414e-02
1.632695220464512945e-02
1.632054137486306511e-02
1.631413721764008590e-02
1.630773972383556258e-02
1.630134888432637277e-02
1.629496469000611680e-02
1.628858713178562082e-02
1.628221620059285696e-02
1.627585188737276992e-02
1.626949418308737405e-02
1.626314307871551401e-02
1.625679856525287167e-02
1.625046063371216737e-02
1.624412927512290661e-02
1.623780448053131417e-02
1.623148624100046247e-02
1.622517454760990033e-02
1.621886939145614215e-02
1.621257076365218916e-02
1.620627865532773756e-02
1.619999305762886976e-02
1.619371396171810987e-02
1.618744135877487125e-02
1.618117523999468635e-02
1.617491559658961603e-02
1.616866241978788879e-02
1.616241570083425463e-02
1.615617543098971792e-02
1.614994160153158595e-02
1.614371420375329894e-02
1.613749322896437105e-02
1.613127866849061939e-02
1.612507051367395236e-02
1.611886875587239046e-02
1.611267338645988589e-02
1.610648439682623584e-02
1.610030177837752305e-02
1.609412552253562667e-02
1.608795562073820490e-02
1.608179206443884068e-02
1.607563484510682664e-02
1.606948395422742870e-02
1.606333938330154962e-02
1.605720112384582607e-02
1.605106916739234071e-02
1.604494350548913567e-02
1.603882412969965046e-02
1.603271103160309671e-02
1.602660420279381978e-02
1.602050363488196141e-02
1.601440931949317525e-02
1.600832124826813765e-02
1.600223941286345666e-02
1.599616380495062426e-02
1.599009441621661309e-02
1.598403123836370648e-02
1.597797426310957128e-02
1.597192348218667499e-02
1.596587888734301436e-02
1.595984047034174763e-02
1.595380822296070533e-02
1.594778213699335825e-02
1.594176220424787724e-02
1.593574841654752175e-02
1.592974076573041090e-02
1.592373924364980445e-02
1.591774384217371774e-02
1.591175455318508472e-02
1.590577136858169899e-02
1.589979428027609235e-02
1.589382328019559379e-02
1.588785836028221155e-02
1.588189951249288287e-02
1.587594672879873506e-02
1.587000000118617832e-02
1.586405932165564636e-02
1.585812468222249152e-02
1.585219607491648863e-02
1.584627349178181419e-02
1.584035692487731697e-02
1.583444636627620583e-02
1.582854180806604269e-02
1.582264324234878075e-02
1.581675066124080264e-02
1.581086405687253532e-02
1.580498342138921680e-02
1.579910874694978595e-02
1.579324002572752433e-02
1.578737724991011865e-02
1.578152041169924788e-02
1.577566950331063880e-02
1.576982451697434354e-02
1.576398544493414627e-02
1.575815227944805941e-02
1.575232501278814312e-02
1.574650363724038396e-02
1.574068814510453176e-02
1.573487852869433559e-02
1.572907478033743964e-02
1.572327689237536241e-02
1.571748485716343430e-02
1.571169866707057897e-02
1.570591831447960829e-02
1.570014379178718070e-02
1.569437509140339526e-02
1.568861220575210047e-02
1.568285512727080402e-02
1.567710384841051671e-02
1.567135836163592241e-02
1.566561865942525320e-02
1.565988473427007421e-02
1.565415657867559249e-02
1.564843418516029955e-02
1.564271754625635655e-02
1.563700665450902874e-02
1.563130150247717468e-02
1.562560208273277781e-02
1.561990838786118940e-02
1.561422041046106948e-02
1.560853814314429669e-02
1.560286157853594570e-02
1.559719070927426468e-02
1.559152552801057467e-02
1.558586602740953675e-02
1.558021220014879811e-02
1.557456403891890537e-02
1.556892153642356995e-02
1.556328468537959697e-02
1.555765347851665280e-02
1.555202790857749054e-02
1.554640796831747301e-02
1.554079365050513306e-02
1.553518494792182660e-02
1.552958185336185230e-02
1.552398435963192776e-02
1.551839245955190065e-02
1.551280614595418848e-02
1.550722541168422265e-02
1.550165024959983089e-02
1.549608065257140378e-02
1.549051661348236145e-02
1.548495812522850817e-02
1.547940518071824062e-02
1.547385777287260331e-02
1.546831589462499372e-02
1.546277953892146069e-02
1.545724869872054826e-02
1.545172336699317424e-02
1.544620353672253830e-02
1.544068920090466493e-02
1.543518035254748226e-02
1.542967698467151427e-02
1.542417909030947484e-02
1.541868666250646898e-02
1.541319969431980894e-02
1.540771817881902289e-02
1.540224210908591913e-02
1.539677147821431023e-02
1.539130627931050918e-02
1.538584650549257998e-02
1.538039214989082339e-02
1.537494320564771963e-02
1.536949966591764395e-02
1.536406152386721354e-02
1.535862877267462831e-02
1.535320140553053311e-02
1.534777941563728390e-02
1.534236279620908999e-02
1.533695154047228469e-02
1.533154564166477711e-02
1.532614509303656392e-02
1.532074988784936677e-02
1.531536001937662539e-02
1.530997548090367102e-02
1.530459626572764839e-02
1.529922236715701087e-02
1.529385377851237050e-02
1.528849049312576078e-02
1.528313250434102863e-02
1.527777980551336609e-02
1.527243239000970060e-02
1.526709025120864295e-02
1.526175338250021669e-02
1.525642177728597088e-02
1.525109542897885341e-02
1.524577433100334986e-02
1.524045847679566038e-02
1.523514785980298325e-02
1.522984247348416198e-02
1.522454231130904688e-02
1.521924736675950122e-02
1.521395763332819735e-02
1.520867310451911106e-02
1.520339377384761874e-02
1.519811963484048872e-02
1.519285068103547881e-02
1.518758690598161036e-02
1.518232830323902258e-02
1.517707486637915812e-02
1.517182658898448902e-02
1.516658346464869883e-02
1.516134548697625935e-02
1.515611264958292154e-02
1.515088494609574503e-02
1.514566237015228453e-02
1.514044491540133229e-02
1.513523257550244451e-02
1.513002534412655371e-02
1.512482321495516209e-02
1.511962618168073876e-02
1.511443423800659137e-02
1.510924737764681412e-02
1.510406559432674045e-02
1.509888888178199766e-02
1.509371723375917823e-02
1.508855064401565943e-02
1.508338910631955125e-02
1.507823261444962183e-02
1.507308116219542062e-02
1.506793474335709621e-02
1.506279335174529575e-02
1.505765698118169231e-02
1.505252562549819727e-02
1.504739927853740444e-02
1.504227793415240967e-02
1.503716158620689407e-02
1.503205022857516740e-02
1.502694385514187492e-02
1.502184245980203899e-02
1.501674603646127766e-02
1.501165457903573877e-02
1.500656808145174430e-02
1.500148653764608354e-02
1.499640994156583446e-02
1.499133828716856659e-02
1.498627156842204447e-02
1.498120977930420504e-02
1.497615291380366767e-02
1.497110096591880435e-02
1.496605392965855673e-02
1.496101179904186021e-02
1.495597456809795271e-02
1.495094223086632958e-02
1.494591478139625958e-02
1.494089221374758289e-02
1.493587452198998945e-02
1.493086170020326182e-02
1.492585374247721794e-02
1.492085064291181692e-02
1.491585239561706890e-02
1.491085899471266026e-02
1.490587043432861983e-02
1.490088670860481752e-02
1.489590781169096954e-02
1.489093373774668348e-02
1.488596448094163006e-02
1.488100003545525865e-02
1.487604039547680765e-02
1.487108555520537390e-02
1.486613550884988144e-02
1.486119025062916828e-02
1.485624977477162378e-02
1.485131407551544547e-02
1.484638314710865457e-02
1.484145698380882374e-02
1.483653557988350892e-02
1.483161892960945145e-02
1.482670702727351825e-02
1.482179986717196106e-02
1.481689744361058304e-02
1.481199975090507354e-02
1.480710678338025520e-02
1.480221853537091146e-02
1.479733500122115512e-02
1.479245617528461738e-02
1.478758205192431431e-02
1.478271262551284285e-02
1.477784789043250918e-02
1.477298784107455680e-02
1.476813247183990721e-02
1.476328177713888412e-02
1.475843575139126722e-02
1.475359438902587583e-02
1.474875768448107721e-02
1.474392563220461132e-02
1.473909822665346245e-02
1.473427546229375343e-02
1.472945733360096938e-02
1.472464383505992479e-02
1.471983496116452579e-02
1.471503070641802004e-02
1.471023106533257511e-02
1.470543603242976949e-02
1.470064560224015361e-02
1.469585976930368014e-02
1.469107852816911239e-02
1.468630187339434005e-02
1.468152979954644340e-02
1.467676230120168977e-02
1.467199937294491087e-02
1.466724100937041517e-02
1.466248720508116568e-02
1.465773795468943222e-02
1.465299325281629525e-02
1.464825309409171876e-02
1.464351747315436984e-02
1.463878638465243576e-02
1.463405982324259176e-02
1.462933778359037235e-02
1.462462026037006542e-02
1.461990724826510088e-02
1.461519874196766378e-02
1.461049473617847053e-02
1.460579522560725985e-02
1.460110020497231917e-02
1.459640966900108312e-02
1.459172361242935291e-02
1.458704203000160855e-02
1.458236491647122400e-02
1.457769226660020519e-02
1.457302407515918656e-02
1.456836033692736516e-02
1.456370104669260993e-02
1.455904619925156573e-02
1.455439578940912262e-02
1.454974981197908017e-02
1.454510826178353165e-02
1.454047113365318153e-02
1.453583842242734021e-02
1.453121012295373674e-02
1.452658623008866792e-02
1.452196673869666013e-02
1.451735164365103303e-02
1.451274093983326990e-02
1.450813462213335937e-02
1.450353268544973297e-02
1.449893512468911072e-02
1.449434193476658445e-02
1.448975311060579294e-02
1.448516864713838247e-02
1.448058853930452722e-02
1.447601278205269681e-02
1.447144137033954531e-02
1.446687429912998056e-02
1.446231156339738456e-02
1.445775315812309302e-02
1.445319907829677869e-02
1.444864931891618604e-02
1.444410387498754750e-02
1.443956274152499025e-02
1.443502591355081896e-02
1.443049338609554005e-02
1.442596515419764490e-02
1.442144121290416664e-02
1.441692155726971569e-02
1.441240618235693945e-02
1.440789508323688656e-02
1.440338825498865480e-02
1.439888569269918810e-02
1.439438739146316204e-02
1.438989334638365349e-02
1.438540355257178840e-02
1.438091800514636719e-02
1.437643669923409362e-02
1.437195962996965296e-02
1.436748679249598599e-02
1.436301818196350846e-02
1.435855379353063836e-02
1.435409362236347679e-02
1.434963766363650181e-02
1.434518591253159010e-02
1.434073836423828754e-02
1.433629501395449098e-02
1.433185585688537614e-02
1.432742088824412452e-02
1.432299010325174815e-02
1.431856349713670623e-02
1.431414106513538217e-02
1.430972280249197433e-02
1.430530870445814728e-02
1.430089876629327648e-02
1.429649298326453669e-02
1.429209135064663655e-02
1.428769386372200079e-02
1.428330051778060536e-02
1.427891130812000524e-02
1.427452623004544195e-02
1.427014527886967532e-02
1.426576844991290019e-02
1.426139573850314368e-02
1.425702713997567192e-02
1.425266264967350177e-02
1.424830226294682492e-02
1.424394597515366186e-02
1.423959378165942299e-02
1.423524567783686010e-02
1.423090165906618944e-02
1.422656172073497906e-02
1.422222585823857376e-02
1.421789406697920345e-02
1.421356634236690605e-02
1.420924267981866877e-02
1.420492307475937181e-02
1.420060752262081692e-02
1.419629601884214547e-02
1.419198855887001363e-02
1.418768513815817263e-02
1.418338575216789715e-02
1.417909039636751009e-02
1.417479906623266006e-02
1.417051175724613060e-02
1.416622846489831201e-02
1.416194918468630451e-02
1.415767391211466414e-02
1.415340264269513218e-02
1.414913537194659870e-02
1.414487209539502799e-02
1.414061280857364933e-02
1.413635750702270724e-02
1.413210618628973556e-02
1.412785884192912025e-02
1.412361546950245857e-02
1.411937606457848784e-02
1.411514062273292944e-02
1.411090913954854247e-02
1.410668161061508739e-02
1.410245803152944746e-02
1.409823839789537542e-02
1.409402270532373810e-02
1.408981094943238983e-02
1.408560312584593473e-02
1.408139923019614478e-02
1.407719925812176906e-02
1.407300320526830122e-02
1.406881106728812177e-02
1.406462283984062124e-02
1.406043851859226958e-02
1.405625809921598988e-02
1.405208157739174304e-02
1.404790894880646873e-02
1.404374020915379745e-02
1.403957535413418237e-02
1.403541437945486116e-02
1.403125728082995141e-02
1.402710405398029103e-02
1.402295469463352151e-02
1.401880919852391619e-02
1.401466756139274975e-02
1.401052977898766330e-02
1.400639584706324554e-02
1.400226576138074996e-02
1.399813951770821630e-02
1.399401711182014438e-02
1.398989853949776478e-02
1.398578379652903360e-02
1.398167287870857173e-02
1.397756578183747406e-02
1.397346250172359743e-02
1.396936303418113735e-02
1.396526737503130805e-02
1.396117552010159475e-02
1.395708746522605556e-02
1.395300320624526247e-02
1.394892273900658758e-02
1.394484605936363412e-02
1.394077316317664239e-02
1.393670404631232665e-02
1.393263870464398445e-02
1.392857713405119477e-02
1.392451933042011467e-02
1.392046528964336997e-02
1.391641500761994429e-02
1.391236848025545654e-02
1.390832570346153124e-02
1.390428667315656529e-02
1.390025138526526129e-02
1.389621983571864838e-02
1.389219202045401808e-02
1.388816793541508554e-02
1.388414757655222209e-02
1.388013093982156353e-02
1.387611802118596076e-02
1.387210881661435358e-02
1.386810332208231016e-02
1.386410153357125509e-02
1.386010344706896207e-02
1.385610905856981059e-02
1.385211836407409039e-02
1.384813135958842811e-02
1.384414804112553063e-02
1.384016840470450940e-02
1.383619244635078856e-02
1.383222016209564344e-02
1.382825154797660480e-02
1.382428660003748484e-02
1.382032531432831994e-02
1.381636768690504280e-02
1.381241371382987797e-02
1.380846339117116316e-02
1.380451671500326598e-02
1.380057368140669843e-02
1.379663428646795559e-02
1.379269852627982781e-02
1.378876639694099314e-02
1.378483789455622541e-02
1.378091301523618091e-02
1.377699175509789105e-02
1.377307411026412395e-02
1.376916007686365337e-02
1.376524965103130028e-02
1.376134282890795375e-02
1.375743960664047895e-02
1.375353998038139972e-02
1.374964394628957337e-02
1.374575150052947774e-02
1.374186263927181482e-02
1.373797735869302337e-02
1.373409565497529794e-02
1.373021752430714400e-02
1.372634296288256263e-02
1.372247196690154838e-02
1.371860453257003377e-02
1.371474065609965334e-02
1.371088033370802990e-02
1.370702356161852820e-02
1.370317033606032082e-02
1.369932065326832926e-02
1.369547450948353610e-02
1.369163190095237272e-02
1.368779282392720148e-02
1.368395727466611110e-02
1.368012524943317682e-02
1.367629674449769538e-02
1.367247175613504895e-02
1.366865028062641020e-02
1.366483231425857404e-02
1.366101785332384834e-02
1.365720689412036615e-02
1.365339943295199553e-02
1.364959546612845229e-02
1.364579498996453671e-02
1.364199800078107205e-02
1.363820449490459226e-02
1.363441446866737496e-02
1.363062791840655326e-02
1.362684484046560590e-02
1.362306523119371365e-02
1.361928908694502900e-02
1.361551640407941341e-02
1.361174717896261599e-02
1.360798140796593003e-02
1.360421908746588943e-02
1.360046021384445254e-02
1.359670478348973081e-02
1.359295279279478311e-02
1.358920423815837032e-02
1.358545911598461886e-02
1.358171742268337971e-02
1.357797915466988324e-02
1.357424430836459694e-02
1.357051288019356892e-02
1.356678486658866901e-02
1.356306026398666417e-02
1.355933906882976318e-02
1.355562127756605208e-02
1.355190688664857472e-02
1.354819589253607702e-02
1.354448829169229394e-02
1.354078408058677352e-02
1.353708325569417600e-02
1.353338581349454277e-02
1.352969175047319741e-02
1.352600106312102334e-02
1.352231374793408381e-02
1.351862980141365841e-02
1.351494922006633848e-02
1.351127200040437397e-02
1.350759813894476455e-02
1.350392763221020150e-02
1.350026047672837730e-02
1.349659666903234301e-02
1.349293620566048221e-02
1.348927908315624390e-02
1.348562529806848764e-02
1.348197484695108812e-02
1.347832772636326643e-02
1.347468393286949638e-02
1.347104346303921139e-02
1.346740631344725894e-02
1.346377248067348771e-02
1.346014196130308066e-02
1.345651475192623757e-02
1.345289084913828086e-02
1.344927024953980303e-02
1.344565294973640301e-02
1.344203894633884053e-02
1.343842823596294415e-02
1.343482081522975012e-02
1.343121668076515188e-02
1.342761582920045348e-02
1.342401825717171732e-02
1.342042396132026895e-02
1.341683293829224952e-02
1.341324518473905984e-02
1.340966069731724074e-02
1.340607947268788840e-02
1.340250150751768482e-02
1.339892679847788128e-02
1.339535534224498350e-02
1.339178713550027988e-02
1.338822217493012418e-02
1.338466045722604657e-02
1.338110197908416905e-02
1.337754673720581607e-02
1.337399472829707905e-02
1.337044594906927272e-02
1.336690039623822206e-02
1.336335806652513836e-02
1.335981895665578310e-02
1.335628306336084613e-02
1.335275038337596469e-02
1.334922091344194379e-02
1.334569465030399117e-02
1.334217159071235913e-02
1.333865173142223699e-02
1.333513506919375459e-02
1.333162160079152600e-02
1.332811132298514049e-02
1.332460423254932559e-02
1.332110032626318032e-02
1.331759960091079449e-02
1.331410205328089486e-02
1.331060768016752160e-02
1.330711647836882797e-02
1.330362844468806899e-02
1.330014357593305684e-02
1.329666186891690846e-02
1.329318332045673935e-02
1.328970792737482060e-02
1.328623568649802897e-02
1.328276659465815919e-02
1.327930064869144687e-02
1.327583784543889811e-02
1.327237818174641093e-02
1.326892165446426353e-02
1.326546826044762428e-02
1.326201799655615625e-02
1.325857085965445603e-02
1.325512684661154551e-02
1.325168595430115288e-02
1.324824817960145763e-02
1.324481351939569423e-02
1.324138197057143571e-02
1.323795353002077749e-02
1.323452819464048490e-02
1.323110596133216833e-02
1.322768682700176807e-02
1.322427078855981271e-02
1.322085784292144003e-02
1.321744798700639177e-02
1.321404121773889911e-02
1.321063753204771395e-02
1.320723692686637252e-02
1.320383939913253625e-02
1.320044494578877931e-02
1.319705356378181489e-02
1.319366525006319436e-02
1.319028000158895680e-02
1.318689781531918667e-02
1.318351868821894882e-02
1.318014261725755816e-02
1.317676959940895960e-02
1.317339963165133597e-02
1.317003271096733874e-02
1.316666883434442978e-02
1.316330799877400010e-02
1.315995020125203946e-02
1.315659543877908781e-02
1.315324370836010864e-02
1.314989500700429123e-02
1.314654933172533860e-02
1.314320667954131834e-02
1.313986704747457934e-02
1.313653043255205190e-02
1.313319683180475157e-02
1.312986624226851820e-02
1.312653866098312076e-02
1.312321408499262862e-02
1.311989251134573070e-02
1.311657393709542499e-02
1.311325835929878086e-02
1.310994577501733635e-02
1.310663618131702179e-02
1.310332957526802455e-02
1.310002595394454093e-02
1.309672531442547007e-02
1.309342765379379117e-02
1.309013296913676822e-02
1.308684125754572269e-02
1.308355251611651067e-02
1.308026674194945685e-02
1.307698393214822008e-02
1.307370408382175705e-02
1.307042719408268647e-02
1.306715326004788749e-02
1.306388227883836968e-02
1.306061424757957827e-02
1.305734916340113051e-02
1.305408702343659362e-02
1.305082782482392886e-02
1.304757156470518452e-02
1.304431824022661210e-02
1.304106784853870105e-02
1.303782038679579362e-02
1.303457585215666951e-02
1.303133424178420235e-02
1.302809555284537187e-02
1.302485978251111814e-02
1.302162692795682045e-02
1.301839698636153043e-02
1.301516995490885689e-02
1.301194583078628571e-02
1.300872461118537417e-02
1.300550629330183942e-02
1.300229087433520461e-02
1.299907835148958989e-02
1.299586872197257097e-02
1.299266198299628763e-02
1.298945813177654167e-02
1.298625716553347513e-02
1.298305908149104473e-02
1.297986387687737921e-02
1.297667154892437162e-02
1.297348209486826574e-02
1.297029551194920499e-02
1.296711179741121163e-02
1.296393094850232033e-02
1.296075296247465106e-02
1.295757783658420606e-02
1.295440556809089074e-02
1.295123615425898371e-02
1.294806959235616020e-02
1.294490587965429346e-02
1.294174501342937322e-02
1.293858699096106166e-02
1.293543180953296741e-02
1.293227946643280002e-02
1.292912995895213746e-02
1.292598328438630643e-02
1.292283944003456107e-02
1.291969842320032404e-02
1.291656023119074764e-02
1.291342486131664795e-02
1.291029231089301475e-02
1.290716257723860741e-02
1.290403565767596177e-02
1.290091154953167812e-02
1.289779025013595634e-02
1.289467175682300001e-02
1.289155606693086036e-02
1.288844317780138589e-02
1.288533308678008714e-02
1.288222579121660154e-02
1.287912128846412270e-02
1.287601957587971614e-02
1.287292065082434357e-02
1.286982451066264604e-02
1.286673115276312437e-02
1.286364057449796219e-02
1.286055277324320636e-02
1.285746774637874269e-02
1.285438549128788653e-02
1.285130600535809922e-02
1.284822928598039135e-02
1.284515533054948755e-02
1.284208413646407108e-02
1.283901570112611600e-02
1.283595002194182731e-02
1.283288709632083094e-02
1.282982692167644947e-02
1.282676949542588957e-02
1.282371481498978220e-02
1.282066287779274477e-02
1.281761368126286237e-02
1.281456722283207290e-02
1.281152349993584100e-02
1.280848251001334877e-02
1.280544425050744207e-02
1.280240871886462531e-02
1.279937591253508221e-02
1.279634582897244341e-02
1.279331846563437451e-02
1.279029381998168791e-02
1.278727188947919972e-02
1.278425267159524585e-02
1.278123616380157090e-02
1.277822236357375150e-02
1.277521126839091352e-02
1.277220287573585696e-02
1.276919718309462055e-02
1.276619418795721730e-02
1.276319388781712964e-02
1.276019628017125568e-02
1.275720136252032726e-02
1.275420913236827158e-02
1.275121958722296063e-02
1.274823272459562132e-02
1.274524854200081991e-02
1.274226703695704489e-02
1.273928820698602346e-02
1.273631204961315523e-02
1.273333856236726590e-02
1.273036774278082407e-02
1.272739958838960475e-02
1.272443409673306575e-02
1.272147126535405799e-02
1.271851109179890360e-02
1.271555357361743924e-02
1.271259870836301611e-02
1.270964649359245489e-02
1.270669692686589997e-02
1.270375000574714038e-02
1.270080572780334961e-02
1.269786409060499367e-02
1.269492509172632198e-02
1.269198872874470647e-02
1.268905499924101628e-02
1.268612390079961252e-02
1.268319543100837957e-02
1.268026958745833467e-02
1.267734636774400271e-02
1.267442576946350291e-02
1.267150779021818628e-02
1.266859242761275359e-02
1.266567967925536463e-02
1.266276954275758100e-02
1.265986201573424119e-02
1.265695709580359415e-02
1.265405478058743809e-02
1.265115506771048552e-02
1.264825795480124977e-02
1.264536343949141176e-02
1.264247151941596224e-02
1.263958219221327818e-02
1.263669545552495964e-02
1.263381130699607266e-02
1.263092974427496365e-02
1.262805076501324897e-02
1.262517436686595891e-02
1.262230054749121679e-02
1.261942930455059453e-02
1.261656063570904852e-02
1.261369453863452755e-02
1.261083101099846372e-02
1.260797005047575338e-02
1.260511165474409966e-02
1.260225582148484513e-02
1.259940254838244796e-02
1.259655183312456336e-02
1.259370367340226574e-02
1.259085806690959583e-02
1.258801501134431018e-02
1.258517450440676567e-02
1.258233654380113559e-02
1.257950112723453355e-02
1.257666825241716274e-02
1.257383791706261772e-02
1.257101011888781504e-02
1.256818485561266192e-02
1.256536212496025401e-02
1.256254192465714251e-02
1.255972425243261775e-02
1.255690910601960780e-02
1.255409648315396719e-02
1.255128638157469029e-02
1.254847879902410736e-02
1.254567373324765034e-02
1.254287118199369500e-02
1.254007114301415420e-02
1.253727361406377534e-02
1.253447859290057233e-02
1.253168607728558440e-02
1.252889606498325259e-02
1.252610855376070850e-02
1.252332354138862777e-02
1.252054102564056394e-02
1.251776100429323468e-02
1.251498347512646631e-02
1.251220843592319373e-02
1.250943588446937378e-02
1.250666581855419852e-02
1.250389823596983162e-02
1.250113313451148116e-02
1.249837051197755754e-02
1.249561036616954161e-02
1.249285269489163949e-02
1.249009749595165683e-02
1.248734476716017137e-02
1.248459450633062143e-02
1.248184671127988699e-02
1.247910137982765136e-02
1.247635850979664056e-02
1.247361809901263198e-02
1.247088014530441449e-02
1.246814464650391335e-02
1.246541160044596815e-02
1.246268100496835014e-02
1.245995285791207108e-02
1.245722715712079334e-02
1.245450390044160541e-02
1.245178308572423946e-02
1.244906471082165775e-02
1.244634877358943674e-02
1.244363527188657899e-02
1.244092420357484699e-02
1.243821556651895574e-02
1.243550935858670284e-02
1.243280557764843940e-02
1.243010422157820975e-02
1.242740528825224400e-02
1.242470877555022606e-02
1.242201468135451826e-02
1.241932300355055342e-02
1.241663374002660407e-02
1.241394688867405137e-02
1.241126244738684908e-02
1.240858041406219837e-02
1.240590078660012106e-02
1.240322356290343535e-02
1.240054874087785988e-02
1.239787631843231736e-02
1.239520629347820591e-02
1.239253866392998026e-02
1.238987342770510314e-02
1.238721058272393254e-02
1.238455012690925852e-02
1.238189205818727642e-02
1.237923637448687039e-02
1.237658307373971402e-02
1.237393215388027552e-02
1.237128361284604676e-02
1.236863744857733850e-02
1.236599365901716943e-02
1.236335224211156797e-02
1.236071319580925136e-02
1.235807651806186160e-02
1.235544220682388734e-02
1.235281026005248528e-02
1.235018067570785825e-02
1.234755345175271232e-02
1.234492858615286043e-02
1.234230607687681128e-02
1.233968592189581617e-02
1.233706811918404596e-02
1.233445266671823887e-02
1.233183956247812726e-02
1.232922880444617224e-02
1.232662039060761910e-02
1.232401431895034129e-02
1.232141058746527573e-02
1.231880919414584871e-02
1.231621013698826900e-02
1.231361341399180194e-02
1.231101902315797150e-02
1.230842696249149007e-02
1.230583722999960619e-02
1.230324982369229714e-02
1.230066474158228104e-02
1.229808198168518517e-02
1.229550154201907233e-02
1.229292342060487112e-02
1.229034761546628565e-02
1.228777412462974013e-02
1.228520294612404917e-02
1.228263407798119503e-02
1.228006751823559548e-02
1.227750326492428601e-02
1.227494131608727022e-02
1.227238166976711044e-02
1.226982432400887044e-02
1.226726927686052314e-02
1.226471652637265049e-02
1.226216607059857702e-02
1.225961790759396049e-02
1.225707203541765572e-02
1.225452845213069117e-02
1.225198715579702349e-02
1.224944814448329471e-02
1.224691141625848870e-02
1.224437696919446726e-02
1.224184480136584173e-02
1.223931491084953929e-02
1.223678729572532861e-02
1.223426195407557350e-02
1.223173888398508026e-02
1.222921808354169790e-02
1.222669955083540566e-02
1.222418328395909019e-02
1.222166928100814655e-02
1.221915754008062217e-02
1.221664805927704864e-02
1.221414083670062725e-02
1.221163587045721866e-02
1.220913315865506700e-02
1.220663269940526138e-02
1.220413449082126053e-02
1.220163853101915129e-02
1.219914481811763991e-02
1.219665335023791160e-02
1.219416412550382994e-02
1.219167714204168196e-02
1.218919239798042266e-02
1.218670989145146343e-02
1.218422962058882640e-02
1.218175158352899530e-02
1.217927577841116521e-02
1.217680220337680717e-02
1.217433085657016606e-02
1.217186173613788239e-02
1.216939484022903049e-02
1.216693016699559905e-02
1.216446771459151442e-02
1.216200748117357219e-02
1.215954946490121515e-02
1.215709366393597814e-02
1.215464007644199811e-02
1.215218870058623613e-02
1.214973953453797779e-02
1.214729257646854008e-02
1.214484782455249427e-02
1.214240527696641876e-02
1.213996493188945064e-02
1.213752678750308969e-02
1.213509084199164596e-02
1.213265709354152330e-02
1.213022554034168254e-02
1.212779618058384967e-02
1.212536901246173172e-02
1.212294403417171415e-02
1.212052124391273418e-02
1.211810063988607612e-02
1.211568222029518922e-02
1.211326598334658625e-02
1.211085192724859275e-02
1.210844005021203228e-02
1.210603035045073120e-02
1.210362282618039284e-02
1.210121747561911446e-02
1.209881429698770293e-02
1.209641328850925845e-02
1.209401444840918667e-02
1.209161777491545540e-02
1.208922326625824772e-02
1.208683092067032103e-02
1.208444073638675724e-02
1.208205271164488129e-02
1.207966684468473814e-02
1.207728313374838852e-02
1.207490157708048656e-02
1.207252217292805081e-02
1.207014491954034978e-02
1.206776981516902852e-02
1.206539685806838451e-02
1.206302604649467369e-02
1.206065737870657545e-02
1.205829085296542154e-02
1.205592646753474856e-02
1.205356422068003426e-02
1.205120411066986502e-02
1.204884613577453592e-02
1.204649029426680534e-02
1.204413658442193662e-02
1.204178500451756791e-02
1.203943555283323343e-02
1.203708822765123948e-02
1.203474302725611803e-02
1.203239994993449309e-02
1.203005899397538610e-02
1.202772015767048300e-02
1.202538343931317498e-02
1.202304883719957328e-02
1.202071634962798528e-02
1.201838597489888333e-02
1.201605771131505039e-02
1.201373155718199644e-02
1.201140751080692452e-02
1.200908557049933101e-02
1.200676573457161618e-02
1.200444800133779362e-02
1.200213236911436797e-02
1.199981883622030371e-02
1.199750740097655331e-02
1.199519806170637991e-02
1.199289081673534513e-02
1.199058566439146004e-02
1.198828260300449644e-02
1.198598163090699130e-02
1.198368274643344181e-02
1.198138594792057081e-02
1.197909123370747946e-02
1.197679860213545985e-02
1.197450805154791700e-02
1.197221958029051278e-02
1.196993318671132032e-02
1.196764886916040424e-02
1.196536662599011723e-02
1.196308645555515734e-02
1.196080835621217593e-02
1.195853232632028244e-02
1.195625836424054310e-02
1.195398646833645273e-02
1.195171663697352366e-02
1.194944886851959619e-02
1.194718316134471200e-02
1.194491951382086262e-02
1.194265792432247335e-02
1.194039839122608242e-02
1.193814091291034961e-02
1.193588548775619158e-02
1.193363211414653728e-02
1.193138079046674252e-02
1.192913151510402101e-02
1.192688428644809485e-02
1.192463910289043652e-02
1.192239596282499911e-02
1.192015486464775322e-02
1.191791580675696620e-02
1.191567878755272168e-02
1.191344380543741394e-02
1.191121085881587278e-02
1.190897994609455175e-02
1.190675106568229308e-02
1.190452421599035547e-02
1.190229939543147215e-02
1.190007660242091946e-02
1.189785583537612476e-02
1.189563709271654161e-02
1.189342037286350226e-02
1.189120567424098614e-02
1.188899299527461546e-02
1.188678233439218260e-02
1.188457369002384086e-02
1.188236706060156328e-02
1.188016244455947223e-02
1.187795984033398165e-02
1.187575924636332173e-02
1.187356066108789972e-02
1.187136408295042314e-02
1.186916951039535678e-02
1.186697694186924362e-02
1.186478637582114720e-02
1.186259781070168363e-02
1.186041124496367560e-02
1.185822667706226685e-02
1.185604410545443993e-02
1.185386352859909946e-02
1.185168494495746246e-02
1.184950835299285188e-02
1.184733375117028031e-02
1.184516113795723406e-02
1.184299051182286303e-02
1.184082187123848724e-02
1.183865521467774781e-02
1.183649054061589566e-02
1.183432784753043858e-02
1.183216713390087237e-02
1.183000839820871897e-02
1.182785163893752302e-02
1.182569685457287093e-02
1.182354404360227811e-02
1.182139320451545093e-02
1.181924433580390163e-02
1.181709743596125357e-02
1.181495250348322396e-02
1.181280953686733408e-02
1.181066853461318171e-02
1.180852949522255210e-02
1.180639241719886462e-02
1.180425729904787183e-02
1.180212413927718418e-02
1.179999293639619369e-02
1.179786368891660303e-02
1.179573639535203347e-02
1.179361105421787050e-02
1.179148766403164197e-02
1.178936622331288979e-02
1.178724673058288187e-02
1.178512918436518467e-02
1.178301358318515485e-02
1.178089992556994627e-02
1.177878821004901648e-02
1.177667843515357686e-02
1.177457059941676779e-02
1.177246470137369161e-02
1.177036073956156011e-02
1.176825871251923478e-02
1.176615861878778369e-02
1.176406045691021085e-02
1.176196422543111103e-02
1.175986992289733066e-02
1.175777754785777528e-02
1.175568709886293424e-02
1.175359857446516866e-02
1.175151197321935501e-02
1.174942729368160139e-02
1.174734453441015139e-02
1.174526369396547594e-02
1.174318477090963327e-02
1.174110776380646662e-02
1.173903267122216112e-02
1.173695949172450827e-02
1.173488822388312099e-02
1.173281886626987604e-02
1.173075141745812469e-02
1.172868587602335193e-02
1.172662224054297868e-02
1.172456050959599927e-02
1.172250068176356429e-02
1.172044275562875507e-02
1.171838672977640675e-02
1.171633260279310827e-02
1.171428037326767944e-02
1.171223003979029662e-02
1.171018160095348842e-02
1.170813505535145752e-02
1.170609040158018289e-02
1.170404763823767839e-02
1.170200676392368737e-02
1.169996777723972953e-02
1.169793067678942186e-02
1.169589546117806578e-02
1.169386212901284833e-02
1.169183067890280231e-02
1.168980110945880453e-02
1.168777341929350296e-02
1.168574760702149364e-02
1.168372367125913337e-02
1.168170161062460563e-02
1.167968142373792748e-02
1.167766310922113693e-02
1.167564666569767540e-02
1.167363209179322556e-02
1.167161938613511460e-02
1.166960854735227607e-02
1.166759957407593334e-02
1.166559246493868544e-02
1.166358721857515060e-02
1.166158383362167310e-02
1.165958230871658174e-02
1.165758264249964517e-02
1.165558483361277958e-02
1.165358888069958562e-02
1.165159478240533446e-02
1.164960253737725576e-02
1.164761214426430352e-02
1.164562360171719248e-02
1.164363690838835473e-02
1.164165206293230233e-02
1.163966906400499060e-02
1.163768791026418940e-02
1.163570860036964791e-02
1.163373113298279624e-02
1.163175550676666566e-02
1.162978172038622859e-02
1.162780977250842986e-02
1.162583966180120304e-02
1.162387138693522261e-02
1.162190494658238947e-02
1.161994033941617793e-02
1.161797756411231224e-02
1.161601661934807961e-02
1.161405750380217067e-02
1.161210021615547393e-02
1.161014475509058660e-02
1.160819111929133063e-02
1.160623930744404675e-02
1.160428931823622410e-02
1.160234115035707267e-02
1.160039480249816859e-02
1.159845027335204212e-02
1.159650756161321669e-02
1.159456666597834425e-02
1.159262758514528584e-02
1.159069031781348284e-02
1.158875486268492842e-02
1.158682121846247616e-02
1.158488938385098498e-02
1.158295935755726362e-02
1.158103113828950689e-02
1.157910472475750206e-02
1.157718011567337828e-02
1.157525730975026389e-02
1.157333630570319717e-02
1.157141710224923042e-02
1.156949969810675861e-02
1.156758409199574317e-02
1.156567028263837463e-02
1.156375826875803182e-02
1.156184804907986995e-02
1.155993962233099227e-02
1.155803298723999568e-02
1.155612814253685963e-02
1.155422508695383606e-02
1.155232381922454213e-02
1.155042433808399840e-02
1.154852664226935742e-02
1.154663073051930694e-02
1.154473660157384618e-02
1.154284425417509766e-02
1.154095368706680412e-02
1.153906489899384803e-02
1.153717788870348322e-02
1.153529265494405293e-02
1.153340919646585368e-02
1.153152751202079357e-02
1.152964760036221531e-02
1.152776946024534205e-02
1.152589309042699461e-02
1.152401848966552213e-02
1.152214565672098241e-02
1.152027459035516108e-02
1.151840528933122283e-02
1.151653775241420936e-02
1.151467197837067677e-02
1.151280796596883087e-02
1.151094571397848383e-02
1.150908522117107848e-02
1.150722648631969519e-02
1.150536950819887848e-02
1.150351428558519726e-02
1.150166081725625608e-02
1.149980910199166484e-02
1.149795913857265192e-02
1.149611092578184564e-02
1.149426446240344769e-02
1.149241974722365819e-02
1.149057677902983084e-02
1.148873555661100547e-02
1.148689607875813534e-02
1.148505834426333597e-02
1.148322235192043676e-02
1.148138810052527423e-02
1.147955558887451925e-02
1.147772481576699727e-02
1.147589578000303076e-02
1.147406848038428143e-02
1.147224291571416477e-02
1.147041908479781193e-02
1.146859698644153366e-02
1.146677661945356627e-02
1.146495798264364485e-02
1.146314107482284024e-02
1.146132589480404994e-02
1.145951244140179862e-02
1.145770071343179576e-02
1.145589070971160528e-02
1.145408242906040958e-02
1.145227587029858628e-02
1.145047103224835876e-02
1.144866791373362613e-02
1.144686651357942724e-02
1.144506683061252000e-02
1.144326886366158098e-02
1.144147261155618704e-02
1.143967807312779375e-02
1.143788524720946997e-02
1.143609413263572787e-02
1.143430472824244482e-02
1.143251703286736476e-02
1.143073104534944075e-02
1.142894676452939871e-02
1.142716418924936625e-02
1.142538331835307036e-02
1.142360415068553563e-02
1.142182668509359074e-02
1.142005092042546605e-02
1.141827685553088376e-02
1.141650448926113080e-02
1.141473382046901894e-02
1.141296484800870432e-02
1.141119757073615244e-02
1.140943198750847890e-02
1.140766809718459299e-02
1.140590589862473282e-02
1.140414539069080704e-02
1.140238657224605136e-02
1.140062944215519680e-02
1.139887399928465189e-02
1.139712024250210363e-02
1.139536817067689570e-02
1.139361778267973177e-02
1.139186907738288200e-02
1.139012205366006850e-02
1.138837671038646533e-02
1.138663304643896569e-02
1.138489106069537869e-02
1.138315075203568359e-02
1.138141211934081548e-02
1.137967516149344417e-02
1.137793987737764460e-02
1.137620626587886215e-02
1.137447432588420577e-02
1.137274405628212019e-02
1.137101545596239972e-02
1.136928852381659943e-02
1.136756325873758931e-02
1.136583965961949876e-02
1.136411772535821096e-02
1.136239745485096916e-02
1.136067884699627946e-02
1.135896190069448503e-02
1.135724661484700457e-02
1.135553298835685447e-02
1.135382102012846665e-02
1.135211070906788113e-02
1.135040205408228801e-02
1.134869505408049074e-02
1.134698970797273429e-02
1.134528601467065141e-02
1.134358397308730081e-02
1.134188358213733192e-02
1.134018484073650614e-02
1.133848774780223112e-02
1.133679230225333873e-02
1.133509850301007635e-02
1.133340634899402018e-02
1.133171583912827296e-02
1.133002697233723849e-02
1.132833974754690089e-02
1.132665416368451063e-02
1.132497021967883953e-02
1.132328791445998649e-02
1.132160724695941562e-02
1.131992821611030840e-02
1.131825082084676748e-02
1.131657506010472908e-02
1.131490093282124139e-02
1.131322843793486528e-02
1.131155757438563440e-02
1.130988834111484875e-02
1.130822073706529499e-02
1.130655476118109376e-02
1.130489041240775698e-02
1.130322768969234566e-02
1.130156659198292522e-02
1.129990711822944673e-02
1.129824926738280493e-02
1.129659303839554950e-02
1.129493843022147219e-02
1.129328544181594160e-02
1.129163407213538799e-02
1.128998432013786878e-02
1.128833618478271121e-02
1.128668966503060256e-02
1.128504475984368031e-02
1.128340146818548016e-02
1.128175978902064974e-02
1.128011972131559223e-02
1.127848126403776033e-02
1.127684441615588867e-02
1.127520917664060970e-02
1.127357554446332261e-02
1.127194351859697394e-02
1.127031309801613049e-02
1.126868428169628365e-02
1.126705706861460404e-02
1.126543145774948525e-02
1.126380744808057159e-02
1.126218503858900620e-02
1.126056422825736508e-02
1.125894501606921998e-02
1.125732740100976112e-02
1.125571138206542601e-02
1.125409695822422382e-02
1.125248412847497555e-02
1.125087289180833929e-02
1.124926324721608854e-02
1.124765519369122502e-02
1.124604873022847992e-02
1.124444385582331826e-02
1.124284056947309589e-02
1.124123887017618000e-02
1.123963875693224229e-02
1.123804022874252961e-02
1.123644328460933484e-02
1.123484792353633514e-02
1.123325414452869438e-02
1.123166194659267099e-02
1.123007132873594764e-02
1.122848228996754620e-02
1.122689482929762651e-02
1.122530894573783335e-02
1.122372463830115588e-02
1.122214190600179934e-02
1.122056074785499243e-02
1.121898116287790848e-02
1.121740315008838001e-02
1.121582670850591358e-02
1.121425183715130808e-02
1.121267853504630090e-02
1.121110680121436241e-02
1.120953663468022762e-02
1.120796803446934449e-02
1.120640099960920448e-02
1.120483552912816642e-02
1.120327162205590060e-02
1.120170927742350844e-02
1.120014849426321374e-02
1.119858927160857255e-02
1.119703160849455995e-02
1.119547550395714845e-02
1.119392095703385104e-02
1.119236796676344008e-02
1.119081653218561775e-02
1.118926665234175333e-02
1.118771832627454312e-02
1.118617155302728712e-02
1.118462633164535487e-02
1.118308266117504918e-02
1.118154054066364256e-02
1.117999996916025154e-02
1.117846094571495023e-02
1.117692346937870437e-02
1.117538753920455270e-02
1.117385315424621398e-02
1.117232031355853972e-02
1.117078901619837118e-02
1.116925926122283412e-02
1.116773104769093992e-02
1.116620437466304093e-02
1.116467924120018163e-02
1.116315564636502673e-02
1.116163358922157497e-02
1.116011306883460917e-02
1.115859408427065901e-02
1.115707663459734877e-02
1.115556071888322391e-02
1.115404633619861141e-02
1.115253348561457379e-02
1.115102216620358216e-02
1.114951237703964981e-02
1.114800411719739197e-02
1.114649738575303368e-02
1.114499218178437341e-02
1.114348850436954787e-02
1.114198635258873901e-02
1.114048572552296841e-02
1.113898662225445632e-02
1.113748904186688191e-02
1.113599298344485067e-02
1.113449844607431773e-02
1.113300542884258261e-02
1.113151393083790588e-02
1.113002395114999835e-02
1.112853548886965672e-02
1.112704854308876022e-02
1.112556311290071633e-02
1.112407919739985887e-02
1.112259679568185569e-02
1.112111590684362016e-02
1.111963652998298850e-02
1.111815866419936689e-02
1.111668230859321101e-02
1.111520746226605898e-02
1.111373412432083846e-02
1.111226229386154916e-02
1.111079196999348144e-02
1.110932315182286585e-02
1.110785583845755146e-02
1.110639002900619746e-02
1.110492572257863568e-02
1.110346291828641363e-02
1.110200161524155932e-02
1.110054181255769150e-02
1.109908350934967099e-02
1.109762670473314790e-02
1.109617139782541513e-02
1.109471758774464509e-02
1.109326527361021233e-02
1.109181445454284626e-02
1.109036512966424248e-02
1.108891729809726237e-02
1.108747095896642915e-02
1.108602611139650716e-02
1.108458275451422274e-02
1.108314088744722682e-02
1.108170050932419555e-02
1.108026161927518939e-02
1.107882421643123505e-02
1.107738829992462905e-02
1.107595386888891691e-02
1.107452092245855141e-02
1.107308945976931414e-02
1.107165947995824434e-02
1.107023098216322089e-02
1.106880396552356247e-02
1.106737842917961817e-02
1.106595437227286469e-02
1.106453179394602596e-02
1.106311069334288237e-02
1.106169106960836097e-02
1.106027292188869332e-02
1.105885624933088465e-02
1.105744105108350667e-02
1.105602732629611118e-02
1.105461507411922666e-02
1.105320429370479363e-02
1.105179498420562345e-02
1.105038714477587537e-02
1.104898077457081539e-02
1.104757587274663236e-02
1.104617243846093416e-02
1.104477047087232267e-02
1.104336996914030873e-02
1.104197093242614836e-02
1.104057335989143927e-02
1.103917725069946884e-02
1.103778260401461903e-02
1.103638941900189976e-02
1.103499769482804010e-02
1.103360743066063819e-02
1.103221862566822545e-02
1.103083127902092404e-02
1.102944538988942687e-02
1.102806095744573132e-02
1.102667798086340301e-02
1.102529645931634404e-02
1.102391639198007159e-02
1.102253777803123905e-02
1.102116061664718330e-02
1.101978490700683891e-02
1.101841064828994361e-02
1.101703783967744078e-02
1.101566648035141524e-02
1.101429656949484172e-02
1.101292810629220763e-02
1.101156108992856243e-02
1.101019551959049950e-02
1.100883139446558363e-02
1.100746871374237192e-02
1.100610747661047786e-02
1.100474768226089757e-02
1.100338932988539908e-02
1.100203241867706190e-02
1.100067694782989186e-02
1.099932291653911431e-02
1.099797032400089483e-02
1.099661916941260462e-02
1.099526945197264703e-02
1.099392117088062934e-02
1.099257432533703484e-02
1.099122891454358542e-02
1.098988493770294492e-02
1.098854239401904874e-02
1.098720128269665454e-02
1.098586160294192163e-02
1.098452335396174137e-02
1.098318653496429577e-02
1.098185114515870531e-02
1.098051718375529610e-02
1.097918464996546981e-02
1.097785354300142777e-02
1.097652386207682851e-02
1.097519560640615455e-02
1.097386877520494484e-02
1.097254336768982083e-02
1.097121938307867202e-02
1.096989682059008875e-02
1.096857567944403700e-02
1.096725595886137786e-02
1.096593765806405316e-02
1.096462077627514443e-02
1.096330531271860406e-02
1.096199126661954668e-02
1.096067863720434979e-02
1.095936742370000501e-02
1.095805762533487264e-02
1.095674924133832780e-02
1.095544227094060255e-02
1.095413671337321267e-02
1.095283256786865403e-02
1.095152983366032978e-02
1.095022850998292677e-02
1.094892859607181704e-02
1.094763009116390441e-02
1.094633299449658016e-02
1.094503730530869794e-02
1.094374302284007935e-02
1.094245014633135615e-02
1.094115867502444030e-02
1.093986860816206080e-02
1.093857994498831712e-02
1.093729268474792106e-02
1.093600682668687159e-02
1.093472237005218596e-02
1.093343931409180951e-02
1.093215765805482381e-02
1.093087740119120729e-02
1.092959854275206422e-02
1.092832108198955182e-02
1.092704501815677104e-02
1.092577035050775955e-02
1.092449707829785434e-02
1.092322520078312272e-02
1.092195471722079425e-02
1.092068562686908210e-02
1.091941792898717782e-02
1.091815162283534327e-02
1.091688670767492278e-02
1.091562318276811591e-02
1.091436104737822724e-02
1.091310030076959176e-02
1.091184094220720192e-02
1.091058297095792891e-02
1.090932638628861959e-02
1.090807118746778097e-02
1.090681737376474926e-02
1.090556494444976793e-02
1.090431389879421148e-02
1.090306423607044668e-02
1.090181595555174583e-02
1.090056905651240644e-02
1.089932353822790738e-02
1.089807939997431731e-02
1.089683664102929737e-02
1.089559526067086261e-02
1.089435525817848693e-02
1.089311663283239369e-02
1.089187938391389214e-02
1.089064351070528208e-02
1.088940901248988853e-02
1.088817588855171478e-02
1.088694413817652487e-02
1.088571376064984518e-02
1.088448475525949193e-02
1.088325712129343571e-02
1.088203085804067757e-02
1.088080596479174857e-02
1.087958244083744516e-02
1.087836028547013896e-02
1.087713949798292147e-02
1.087592007766963360e-02
1.087470202382560640e-02
1.087348533574677804e-02
1.087227001273002869e-02
1.087105605407347707e-02
1.086984345907605204e-02
1.086863222703761574e-02
1.086742235725915960e-02
1.086621384904237243e-02
1.086500670169031520e-02
1.086380091450669418e-02
1.086259648679602577e-02
1.086139341786443967e-02
1.086019170701833965e-02
1.085899135356549819e-02
1.085779235681460023e-02
1.085659471607485285e-02
1.085539843065730543e-02
1.085420349987313571e-02
1.085300992303480684e-02
1.085181769945585233e-02
1.085062682845044403e-02
1.084943730933420059e-02
1.084824914142309277e-02
1.084706232403436638e-02
1.084587685648652142e-02
1.084469273809824004e-02
1.084350996818985932e-02
1.084232854608246921e-02
1.084114847109773731e-02
1.083996974255888555e-02
1.083879235978959556e-02
1.083761632211471468e-02
1.083644162886013632e-02
1.083526827935220663e-02
1.083409627291898568e-02
1.083292560888885273e-02
1.083175628659114112e-02
1.083058830535671598e-02
1.082942166451650139e-02
1.082825636340310239e-02
1.082709240134992375e-02
1.082592977769064081e-02
1.082476849176097246e-02
1.082360854289665143e-02
1.082244993043465081e-02
1.082129265371318400e-02
1.082013671207065174e-02
1.081898210484738727e-02
1.081782883138364577e-02
1.081667689102123499e-02
1.081552628310286819e-02
1.081437700697165591e-02
1.081322906197243125e-02
1.081208244745037080e-02
1.081093716275145084e-02
1.080979320722340840e-02
1.080865058021387125e-02
1.080750928107198326e-02
1.080636930914794826e-02
1.080523066379216260e-02
1.080409334435678687e-02
1.080295735019427480e-02
1.080182268065826325e-02
1.080068933510349750e-02
1.079955731288502127e-02
1.079842661335945683e-02
1.079729723588390179e-02
1.079616917981651367e-02
1.079504244451666949e-02
1.079391702934384689e-02
1.079279293365921662e-02
1.079167015682468665e-02
1.079054869820251367e-02
1.078942855715677232e-02
1.078830973305171595e-02
1.078719222525267515e-02
1.078607603312629719e-02
1.078496115603926921e-02
1.078384759336017615e-02
1.078273534445776775e-02
1.078162440870193174e-02
1.078051478546363309e-02
1.077940647411434333e-02
1.077829947402693563e-02
1.077719378457459368e-02
1.077608940513175191e-02
1.077498633507390641e-02
1.077388457377690886e-02
1.077278412061798488e-02
1.077168497497510771e-02
1.077058713622685605e-02
1.076949060375328657e-02
1.076839537693474562e-02
1.076730145515278347e-02
1.076620883778984378e-02
1.076511752422910223e-02
1.076402751385473373e-02
1.076293880605177188e-02
1.076185140020601179e-02
1.076076529570437271e-02
1.075968049193438275e-02
1.075859698828469588e-02
1.075751478414476228e-02
1.075643387890466013e-02
1.075535427195584495e-02
1.075427596269016607e-02
1.075319895050055007e-02
1.075212323478097302e-02
1.075104881492581349e-02
1.074997569033090197e-02
1.074890386039253388e-02
1.074783332450788241e-02
1.074676408207525871e-02
1.074569613249349437e-02
1.074462947516269772e-02
1.074356410948351832e-02
1.074250003485749567e-02
1.074143725068725172e-02
1.074037575637591842e-02
1.073931555132793397e-02
1.073825663494827262e-02
1.073719900664289219e-02
1.073614266581857969e-02
1.073508761188292013e-02
1.073403384424453759e-02
1.073298136231270322e-02
1.073193016549768217e-02
1.073088025321064683e-02
1.072983162486329176e-02
1.072878427986865765e-02
1.072773821764037329e-02
1.072669343759270061e-02
1.072564993914129280e-02
1.072460772170213614e-02
1.072356678469239648e-02
1.072252712753000992e-02
1.072148874963350929e-02
1.072045165042278918e-02
1.071941582931803562e-02
1.071838128574071659e-02
1.071734801911297490e-02
1.071631602885759690e-02
1.071528531439872901e-02
1.071425587516070498e-02
1.071322771056923938e-02
1.071220082005071121e-02
1.071117520303204937e-02
1.071015085894175267e-02
1.070912778720820198e-02
1.070810598726143134e-02
1.070708545853189635e-02
1.070606620045088005e-02
1.070504821245086592e-02
1.070403149396454562e-02
1.070301604442618938e-02
1.070200186327029818e-02
1.070098894993225247e-02
1.069997730384897663e-02
1.069896692445713310e-02
1.069795781119506350e-02
1.069694996350164552e-02
1.069594338081639347e-02
1.069493806258019035e-02
1.069393400823389316e-02
1.069293121722016474e-02
1.069192968898181884e-02
1.069092942296255046e-02
1.068993041860737993e-02
1.068893267536136747e-02
1.068793619267114844e-02
1.068694096998376933e-02
1.068594700674697744e-02
1.068495430240989919e-02
1.068396285642178242e-02
1.068297266823327665e-02
1.068198373729544771e-02
1.068099606306036065e-02
1.068000964498097734e-02
1.067902448251079918e-02
1.067804057510448115e-02
1.067705792221721253e-02
1.067607652330508985e-02
1.067509637782517069e-02
1.067411748523501396e-02
1.067313984499333734e-02
1.067216345655939633e-02
1.067118831939324088e-02
1.067021443295619598e-02
1.066924179670965603e-02
1.066827041011643266e-02
1.066730027263980939e-02
1.066633138374407062e-02
1.066536374289424674e-02
1.066439734955595617e-02
1.066343220319604726e-02
1.066246830328169970e-02
1.066150564928133870e-02
1.066054424066391337e-02
1.065958407689915344e-02
1.065862515745774966e-02
1.065766748181103292e-02
1.065671104943131942e-02
1.065575585979158628e-02
1.065480191236574045e-02
1.065384920662807225e-02
1.065289774205434997e-02
1.065194751812041651e-02
1.065099853430362398e-02
1.065005079008138344e-02
1.064910428493244174e-02
1.064815901833628120e-02
1.064721498977266000e-02
1.064627219872303805e-02
1.064533064466875560e-02
1.064439032709240188e-02
1.064345124547747164e-02
1.064251339930776322e-02
1.064157678806843497e-02
1.064064141124486211e-02
1.063970726832377464e-02
1.063877435879231025e-02
1.063784268213823804e-02
1.063691223785091441e-02
1.063598302541924646e-02
1.063505504433405989e-02
1.063412829408638509e-02
1.063320277416795155e-02
1.063227848407192859e-02
1.063135542329113684e-02
1.063043359132045777e-02
1.062951298765451094e-02
1.062859361178927417e-02
1.062767546322138101e-02
1.062675854144794034e-02
1.062584284596757023e-02
1.062492837627859905e-02
1.062401513188110727e-02
1.062310311227542339e-02
1.062219231696261666e-02
1.062128274544508685e-02
1.062037439722515048e-02
1.061946727180660202e-02
1.061856136869371650e-02
1.061765668739141598e-02
1.061675322740581601e-02
1.061585098824318826e-02
1.061494996941124945e-02
1.061405017041786199e-02
1.061315159077199852e-02
1.061225422998345221e-02
1.061135808756234408e-02
1.061046316302032694e-02
1.060956945586900152e-02
1.060867696562110482e-02
1.060778569179032273e-02
1.060689563389063776e-02
1.060600679143720859e-02
1.060511916394571083e-02
1.060423275093265796e-02
1.060334755191538574e-02
1.060246356641174684e-02
1.060158079394082041e-02
1.060069923402190070e-02
1.059981888617523779e-02
1.059893974992218504e-02
1.059806182478415480e-02
1.059718511028395239e-02
1.059630960594478213e-02
1.059543531129068968e-02
1.059456222584655508e-02
1.059369034913786901e-02
1.059281968069088371e-02
1.059195022003273437e-02
1.059108196669119803e-02
1.059021492019479767e-02
1.058934908007278831e-02
1.058848444585541379e-02
1.058762101707325272e-02
1.058675879325788639e-02
1.058589777394170796e-02
1.058503795865734648e-02
1.058417934693909636e-02
1.058332193832104730e-02
1.058246573233866117e-02
1.058161072852788209e-02
1.058075692642524226e-02
1.057990432556862870e-02
1.057905292549583473e-02
1.057820272574598770e-02
1.057735372585879609e-02
1.057650592537444367e-02
1.057565932383453498e-02
1.057481392078036229e-02
1.057396971575517812e-02
1.057312670830196435e-02
1.057228489796470557e-02
1.057144428428871512e-02
1.057060486681895596e-02
1.056976664510218822e-02
1.056892961868518763e-02
1.056809378711581066e-02
1.056725914994257817e-02
1.056642570671450371e-02
1.056559345698184285e-02
1.056476240029494140e-02
1.056393253620545487e-02
1.056310386426543430e-02
1.056227638402758122e-02
1.056145009504577334e-02
1.056062499687396815e-02
1.055980108906758030e-02
1.055897837118205049e-02
1.055815684277395215e-02
1.055733650340062550e-02
1.055651735261974727e-02
1.055569938999014606e-02
1.055488261507111364e-02
1.055406702742288545e-02
1.055325262660602656e-02
1.055243941218219489e-02
1.055162738371369542e-02
1.055081654076336223e-02
1.055000688289494358e-02
1.054919840967278970e-02
1.054839112066225694e-02
1.054758501542887687e-02
1.054678009353925139e-02
1.054597635456078382e-02
1.054517379806138577e-02
1.054437242360958642e-02
1.054357223077500780e-02
1.054277321912778717e-02
1.054197538823850588e-02
1.054117873767910878e-02
1.054038326702133425e-02
1.053958897583846810e-02
1.053879586370406844e-02
1.053800393019268568e-02
1.053721317487921368e-02
1.053642359733941367e-02
1.053563519715003914e-02
1.053484797388806044e-02
1.053406192713145575e-02
1.053327705645886597e-02
1.053249336144973514e-02
1.053171084168392710e-02
1.053092949674206032e-02
1.053014932620598143e-02
1.052937032965738963e-02
1.052859250667937015e-02
1.052781585685546965e-02
1.052704037976985585e-02
1.052626607500748226e-02
1.052549294215398591e-02
1.052472098079582086e-02
1.052395019051982628e-02
1.052318057091394116e-02
1.052241212156649654e-02
1.052164484206670469e-02
1.052087873200432261e-02
1.052011379096992258e-02
1.051935001855464243e-02
1.051858741435044743e-02
1.051782597795005054e-02
1.051706570894675973e-02
1.051630660693437559e-02
1.051554867150784542e-02
1.051479190226232464e-02
1.051403629879407546e-02
1.051328186069972609e-02
1.051252858757682936e-02
1.051177647902346197e-02
1.051102553463855067e-02
1.051027575402161372e-02
1.050952713677268807e-02
1.050877968249291049e-02
1.050803339078380284e-02
1.050728826124764162e-02
1.050654429348735035e-02
1.050580148710660716e-02
1.050505984170978062e-02
1.050431935690178571e-02
1.050358003228846378e-02
1.050284186747615402e-02
1.050210486207186350e-02
1.050136901568345972e-02
1.050063432791938263e-02
1.049990079838848678e-02
1.049916842670101276e-02
1.049843721246698086e-02
1.049770715529796741e-02
1.049697825480557650e-02
1.049625051060224488e-02
1.049552392230150913e-02
1.049479848951679478e-02
1.049407421186305568e-02
1.049335108895541567e-02
1.049262912040953809e-02
1.049190830584238732e-02
1.049118864487080631e-02
1.049047013711317325e-02
1.048975278218780387e-02
1.048903657971392463e-02
1.048832152931189476e-02
1.048760763060177514e-02
1.048689488320533707e-02
1.048618328674425469e-02
1.048547284084130893e-02
1.048476354511996764e-02
1.048405539920378021e-02
1.048334840271787638e-02
1.048264255528716209e-02
1.048193785653798484e-02
1.048123430609685172e-02
1.048053190359101577e-02
1.047983064864868238e-02
1.047913054089819919e-02
1.047843157996933804e-02
1.047773376549164526e-02
1.047703709709605670e-02
1.047634157441385168e-02
1.047564719707686290e-02
1.047495396471815991e-02
1.047426187697038380e-02
1.047357093346824863e-02
1.047288113384584225e-02
1.047219247773889181e-02
1.047150496478301343e-02
1.047081859461505490e-02
1.047013336687228728e-02
1.046944928119248296e-02
1.046876633721452454e-02
1.046808453457737272e-02
1.046740387292131001e-02
1.046672435188660509e-02
1.046604597111465591e-02
1.046536873024742596e-02
1.046469262892727944e-02
1.046401766679765435e-02
1.046334384350218645e-02
1.046267115868567202e-02
1.046199961199311378e-02
1.046132920307029160e-02
1.046065993156380936e-02
1.045999179712075143e-02
1.045932479938901059e-02
1.045865893801690982e-02
1.045799421265362558e-02
1.045733062294892761e-02
1.045666816855315463e-02
1.045600684911745203e-02
1.045534666429347691e-02
1.045468761373342936e-02
1.045402969709065093e-02
1.045337291401848487e-02
1.045271726417147662e-02
1.045206274720420631e-02
1.045140936277275112e-02
1.045075711053303040e-02
1.045010599014203900e-02
1.044945600125739803e-02
1.044880714353698704e-02
1.044815941664007340e-02
1.044751282022571455e-02
1.044686735395447021e-02
1.044622301748654968e-02
1.044557981048382586e-02
1.044493773260832953e-02
1.044429678352232563e-02
1.044365696288969414e-02
1.044301827037383626e-02
1.044238070564001974e-02
1.044174426835297806e-02
1.044110895817884979e-02
1.044047477478412221e-02
1.043984171783585505e-02
1.043920978700220090e-02
1.043857898195123778e-02
1.043794930235233086e-02
1.043732074787509338e-02
1.043669331818979605e-02
1.043606701296772264e-02
1.043544183188022806e-02
1.043481777459984855e-02
1.043419484079926608e-02
1.043357303015224682e-02
1.043295234233276858e-02
1.043233277701578234e-02
1.043171433387675255e-02
1.043109701259171095e-02
1.043048081283749762e-02
1.042986573429115736e-02
1.042925177663114010e-02
1.042863893953560953e-02
1.042802722268415354e-02
1.042741662575646759e-02
1.042680714843311970e-02
1.042619879039535964e-02
1.042559155132466442e-02
1.042498543090378087e-02
1.042438042881555470e-02
1.042377654474366949e-02
1.042317377837241772e-02
1.042257212938676146e-02
1.042197159747217626e-02
1.042137218231484891e-02
1.042077388360158029e-02
1.042017670101980271e-02
1.041958063425756954e-02
1.041898568300360893e-02
1.041839184694711047e-02
1.041779912577804612e-02
1.041720751918691693e-02
1.041661702686506354e-02
1.041602764850415100e-02
1.041543938379657641e-02
1.041485223243541341e-02
1.041426619411433240e-02
1.041368126852775140e-02
1.041309745537018910e-02
1.041251475433765256e-02
1.041193316512585565e-02
1.041135268743191740e-02
1.041077332095312856e-02
1.041019506538724826e-02
1.040961792043337483e-02
1.040904188579019722e-02
1.040846696115818246e-02
1.040789314623714878e-02
1.040732044072880357e-02
1.040674884433451415e-02
1.040617835675666271e-02
1.040560897769842071e-02
1.040504070686290583e-02
1.040447354395478835e-02
1.040390748867842802e-02
1.040334254073966257e-02
1.040277869984419096e-02
1.040221596569881543e-02
1.040165433801069211e-02
1.040109381648768837e-02
1.040053440083850249e-02
1.039997609077178593e-02
1.039941888599774274e-02
1.039886278622627336e-02
1.039830779116860705e-02
1.039775390053612747e-02
1.039720111404105266e-02
1.039664943139611414e-02
1.039609885231452223e-02
1.039554937651062869e-02
1.039500100369853373e-02
1.039445373359391966e-02
1.039390756591231611e-02
1.039336250037011487e-02
1.039281853668454908e-02
1.039227567457291085e-02
1.039173391375385058e-02
1.039119325394579144e-02
1.039065369486850444e-02
1.039011523624187514e-02
1.038957787778658354e-02
1.038904161922408163e-02
1.038850646027590814e-02
1.038797240066484384e-02
1.038743944011368513e-02
1.038690757834642361e-02
1.038637681508701970e-02
1.038584715006058735e-02
1.038531858299258752e-02
1.038479111360901368e-02
1.038426474163677699e-02
1.038373946680280595e-02
1.038321528883545675e-02
1.038269220746276984e-02
1.038217022241427409e-02
1.038164933341935263e-02
1.038112954020840688e-02
1.038061084251245235e-02
1.038009324006271793e-02
1.037957673259158956e-02
1.037906131983158675e-02
1.037854700151615364e-02
1.037803377737896680e-02
1.037752164715474712e-02
1.037701061057839762e-02
1.037650066738567828e-02
1.037599181731298226e-02
1.037548406009698720e-02
1.037497739547524334e-02
1.037447182318582996e-02
1.037396734296747343e-02
1.037346395455933726e-02
1.037296165770129099e-02
1.037246045213386508e-02
1.037196033759791441e-02
1.037146131383528957e-02
1.037096338058802678e-02
1.037046653759916663e-02
1.036997078461190241e-02
1.036947612137038670e-02
1.036898254761920574e-02
1.036849006310341589e-02
1.036799866756899988e-02
1.036750836076205835e-02
1.036701914242988201e-02
1.036653101231963144e-02
1.036604397017985152e-02
1.036555801575905940e-02
1.036507314880652335e-02
1.036458936907236686e-02
1.036410667630686781e-02
1.036362507026118880e-02
1.036314455068703712e-02
1.036266511733668384e-02
1.036218676996293261e-02
1.036170950831921504e-02
1.036123333215956815e-02
1.036075824123864481e-02
1.036028423531163735e-02
1.035981131413420998e-02
1.035933947746284049e-02
1.035886872505450106e-02
1.035839905666665305e-02
1.035793047205740489e-02
1.035746297098555195e-02
1.035699655321029554e-02
1.035653121849159849e-02
1.035606696658991459e-02
1.035560379726617637e-02
1.035514171028205366e-02
1.035468070539983035e-02
1.035422078238222056e-02
1.035376194099256984e-02
1.035330418099491764e-02
1.035284750215367811e-02
1.035239190423407202e-02
1.035193738700174865e-02
1.035148395022300952e-02
1.035103159366462106e-02
1.035058031709413032e-02
1.035013012027949202e-02
1.034968100298927322e-02
1.034923296499265857e-02
1.034878600605946414e-02
1.034834012595999345e-02
1.034789532446512596e-02
1.034745160134632573e-02
1.034700895637568653e-02
1.034656738932581213e-02
1.034612689996998805e-02
1.034568748808196124e-02
1.034524915343603899e-02
1.034481189580726927e-02
1.034437571497117021e-02
1.034394061070376472e-02
1.034350658278176960e-02
1.034307363098236482e-02
1.034264175508346761e-02
1.034221095486348267e-02
1.034178123010122061e-02
1.034135258057639756e-02
1.034092500606894650e-02
1.034049850635986728e-02
1.034007308123002615e-02
1.033964873046155745e-02
1.033922545383666666e-02
1.033880325113851681e-02
1.033838212215054154e-02
1.033796206665691698e-02
1.033754308444224598e-02
1.033712517529186692e-02
1.033670833899168889e-02
1.033629257532786214e-02
1.033587788408769914e-02
1.033546426505843087e-02
1.033505171802844014e-02
1.033464024278614446e-02
1.033422983912116698e-02
1.033382050682289492e-02
1.033341224568203043e-02
1.033300505548940748e-02
1.033259893603656610e-02
1.033219388711562915e-02
1.033178990851920352e-02
1.033138700004057435e-02
1.033098516147354026e-02
1.033058439261246367e-02
1.033018469325219964e-02
1.032978606318829713e-02
1.032938850221689145e-02
1.032899201013445442e-02
1.032859658673832524e-02
1.032820223182619873e-02
1.032780894519632134e-02
1.032741672664773576e-02
1.032702557597981081e-02
1.032663549299258146e-02
1.032624647748644348e-02
1.032585852926300868e-02
1.032547164812345347e-02
1.032508583387043918e-02
1.032470108630654387e-02
1.032431740523532572e-02
1.032393479046064474e-02
1.032355324178718149e-02
1.032317275901973447e-02
1.032279334196414822e-02
1.032241499042660902e-02
1.032203770421391033e-02
1.032166148313331568e-02
1.032128632699275649e-02
1.032091223560066551e-02
1.032053920876597509e-02
1.032016724629841904e-02
1.031979634800802778e-02
1.031942651370542155e-02
1.031905774320196652e-02
1.031869003630946600e-02
1.031832339284020732e-02
1.031795781260714563e-02
1.031759329542382767e-02
1.031722984110428239e-02
1.031686744946298286e-02
1.031650612031526776e-02
1.031614585347662670e-02
1.031578664876363696e-02
1.031542850599273531e-02
1.031507142498168036e-02
1.031471540554814055e-02
1.031436044751086675e-02
1.031400655068873476e-02
1.031365371490132812e-02
1.031330193996893470e-02
1.031295122571219448e-02
1.031260157195248821e-02
1.031225297851147936e-02
1.031190544521174736e-02
1.031155897187597398e-02
1.031121355832791998e-02
1.031086920439148319e-02
1.031052590989128999e-02
1.031018367465256179e-02
1.030984249850087041e-02
1.030950238126264115e-02
1.030916332276453698e-02
1.030882532283406913e-02
1.030848838129908018e-02
1.030815249798799210e-02
1.030781767272995371e-02
1.030748390535439138e-02
1.030715119569169599e-02
1.030681954357213700e-02
1.030648894882738205e-02
1.030615941128883335e-02
1.030583093078908663e-02
1.030550350716097005e-02
1.030517714023775414e-02
1.030485182985374677e-02
1.030452757584308758e-02
1.030420437804122936e-02
1.030388223628347574e-02
1.030356115040640189e-02
1.030324112024623429e-02
1.030292214564072079e-02
1.030260422642731606e-02
1.030228736244480706e-02
1.030197155353174826e-02
1.030165679952781653e-02
1.030134310027295587e-02
1.030103045560767060e-02
1.030071886537335321e-02
1.030040832941129386e-02
1.030009884756398313e-02
1.029979041967399832e-02
1.029948304558485003e-02
1.029917672514021020e-02
1.029887145818466319e-02
1.029856724456292352e-02
1.029826408412054181e-02
1.029796197670370707e-02
1.029766092215879565e-02
1.029736092033312761e-02
1.029706197107430228e-02
1.029676407423039779e-02
1.029646722965033359e-02
1.029617143718355651e-02
1.029587669667953072e-02
1.029558300798904050e-02
1.029529037096272789e-02
1.029499878545223589e-02
1.029470825130960471e-02
1.029441876838724408e-02
1.029413033653855600e-02
1.029384295561692683e-02
1.029355662547668318e-02
1.029327134597253501e-02
1.029298711695977864e-02
1.029270393829414057e-02
1.029242180983231184e-02
1.029214073143077009e-02
1.029186070294729402e-02
1.029158172423976121e-02
1.029130379516674833e-02
1.029102691558731256e-02
1.029075108536098467e-02
1.029047630434811768e-02
1.029020257240922942e-02
1.028992988940568599e-02
1.028965825519920219e-02
1.028938766965218840e-02
1.028911813262736036e-02
1.028884964398833583e-02
1.028858220359875168e-02
1.028831581132350244e-02
1.028805046702710446e-02
1.028778617057570476e-02
1.028752292183492817e-02
1.028726072067158957e-02
1.028699956695290109e-02
1.028673946054656403e-02
1.028648040132078972e-02
1.028622238914436715e-02
1.028596542388678786e-02
1.028570950541760412e-02
1.028545463360762066e-02
1.028520080832739415e-02
1.028494802944875455e-02
1.028469629684349192e-02
1.028444561038430703e-02
1.028419596994411406e-02
1.028394737539682115e-02
1.028369982661634686e-02
1.028345332347748060e-02
1.028320786585558075e-02
1.028296345362617568e-02
1.028272008666583116e-02
1.028247776485117712e-02
1.028223648805987218e-02
1.028199625616948130e-02
1.028175706905893293e-02
1.028151892660668365e-02
1.028128182869274959e-02
1.028104577519677910e-02
1.028081076599975455e-02
1.028057680098246225e-02
1.028034388002680571e-02
1.028011200301485323e-02
1.027988116982945545e-02
1.027965138035391059e-02
1.027942263447176666e-02
1.027919493206762465e-02
1.027896827302614453e-02
1.027874265723305314e-02
1.027851808457392116e-02
1.027829455493557004e-02
1.027807206820464773e-02
1.027785062426903907e-02
1.027763022301649704e-02
1.027741086433592646e-02
1.027719254811616453e-02
1.027697527424721244e-02
1.027675904261894299e-02
1.027654385312228198e-02
1.027632970564849868e-02
1.027611660008932552e-02
1.027590453633716282e-02
1.027569351428469016e-02
1.027548353382564880e-02
1.027527459485349549e-02
1.027506669726325518e-02
1.027485984094930575e-02
1.027465402580770605e-02
1.027444925173403092e-02
1.027424551862530372e-02
1.027404282637828757e-02
1.027384117489077257e-02
1.027364056406098423e-02
1.027344099378750888e-02
1.027324246396967705e-02
1.027304497450713498e-02
1.027284852530030435e-02
1.027265311624984967e-02
1.027245874725740346e-02
1.027226541822441261e-02
1.027207312905378117e-02
1.027188187964798299e-02
1.027169166991090399e-02
1.027150249974616639e-02
1.027131436905861193e-02
1.027112727775304074e-02
1.027094122573529549e-02
1.027075621291122232e-02
1.027057223918766485e-02
1.027038930447169915e-02
1.027020740867103619e-02
1.027002655169385881e-02
1.026984673344898298e-02
1.026966795384576595e-02
1.026949021279374014e-02
1.026931351020365576e-02
1.026913784598592998e-02
1.026896322005242841e-02
1.026878963231446160e-02
1.026861708268524999e-02
1.026844557107697495e-02
1.026827509740380930e-02
1.026810566157922849e-02
1.026793726351831262e-02
1.026776990313558839e-02
1.026760358034718365e-02
1.026743829506890533e-02
1.026727404721743640e-02
1.026711083671012249e-02
1.026694866346456250e-02
1.026678752739905963e-02
