1.000000000000000000e+00
1.992519365306928691e-03
8.417775678538300804e-04
2.158787065669358959e-04
2.366264772927814772e-04
2.857724635432392214e-04
3.249084480600380738e-04
1.360617837236194870e-04
2.120966383600139075e-04
2.892905468356259243e-04
1.433770291343857469e-04
6.458926212008295068e-05
1.734043080837695640e-04
8.299255076965376900e-05
1.467138348833109255e-04
9.252935609049563984e-05
1.630152253649828572e-04
1.379052301953985656e-05
1.495947550490141610e-04
4.845600891181797097e-05
8.434515916740633939e-05
8.520816781547137296e-05
7.960754004110944556e-05
7.662012483174031709e-05
2.141741607282559876e-05
9.990326587479204012e-05
1.000000593013270102e-04
1.073239825282444897e-04
1.270144329721263599e-04
4.725023470487688159e-05
1.250716955190872386e-04
6.211193341956611626e-05
9.308786986906782376e-06
1.388472194611902898e-04
1.418418642974335082e-04
2.627769109976832614e-04
2.454906138893896898e-04
2.851799117892288510e-04
2.492378295497542731e-04
3.324973183809282412e-04
1.607536928634524271e-04
1.854375361027615422e-04
1.625981361224135161e-04
1.262206870490663151e-04
2.640239319776348259e-04
1.432294542453057921e-04
2.424841829726657777e-04
3.418866076743671645e-04
4.899837227844342337e-04
2.400624871724943551e-04
9.932303199276090928e-05
1.637636904949939026e-04
3.429333032132245661e-04
3.220300226830303180e-04
3.911960969976380708e-04
2.745288400390725483e-04
2.970533441237675439e-04
2.176191284640019733e-04
5.533472260441075173e-04
3.844605397390962872e-04
2.734180209947211426e-04
4.912502836869617672e-04
6.495484387927929083e-04
2.434176193568207984e-04
3.430015002246182966e-04
3.846806671369167106e-04
5.194504075068797711e-04
4.385177553026840878e-04
4.631706303124435683e-04
5.083237133962026583e-04
6.592009464022464786e-04
6.777085327900057550e-04
1.278495819874403113e-03
9.372554517696774510e-04
2.756989948406343531e-04
1.039824181109975064e-03
2.864883323295415430e-04
4.326604967391282594e-04
5.193067980186732557e-04
2.036126072462129098e-04
2.905287974742579290e-04
6.343841969339844089e-04
2.654232365122357229e-04
4.012997613030839768e-04
3.943948073676950571e-04
3.269489780519430110e-04
8.747463755323793121e-04
1.944220089669457057e-04
7.125285541519826892e-04
9.316222820288103590e-04
1.882753090176702128e-04
3.493808534408970466e-04
4.198407301443877050e-04
1.160978661741846442e-03
5.235968492308461057e-04
6.846431153747541002e-04
3.254205353991170609e-04
4.689234647610613380e-04
9.149343046475978984e-04
2.288265983331053729e-04
9.273473942997711343e-04
6.271202588386666455e-04
1.446232360320489794e-03
1.978287735201702971e-04
3.098439101494266041e-04
4.492997455463433121e-04
4.769516942563418495e-04
1.107012549121688975e-03
2.424934827049336794e-04
3.110647684486649999e-04
9.310036618463238571e-04
5.416114259776541942e-04
5.852207775592043176e-04
3.781394244132114902e-04
6.042333540206215473e-04
7.893184967955707261e-04
9.515781857039396548e-04
1.299038917459750938e-03
9.634193094774166476e-04
2.671524117134760757e-04
3.452026995129131625e-04
4.528313402187614223e-04
5.212334405876708002e-04
2.439651777149497299e-04
9.444546181628248093e-04
1.378974171974934769e-03
8.465423994932651155e-04
8.805078037705294002e-04
3.991271089817124236e-04
7.069326030898103646e-04
7.763475815613459950e-04
4.968926894856113717e-04
5.046462244469257594e-04
6.881056289591221424e-04
9.078597018984669838e-04
2.707508454713321538e-04
6.193148599145362112e-04
4.277082096233817007e-04
7.556637533994519339e-04
1.632126009958511466e-03
8.689194955810891933e-04
7.158354232779463909e-04
2.037796989978931923e-04
3.092404723432758888e-04
5.087983298657858125e-04
8.109387684375235538e-04
8.678910967169103886e-04
6.343788479835407029e-04
7.009158923418320249e-04
4.097594782187905134e-04
6.411977819292754861e-04
4.198427874651713271e-04
2.789953309160101238e-04
5.413685017796557742e-04
7.816766462762635452e-04
5.094582403102944097e-04
2.796657201584139816e-04
1.092381431629759403e-04
2.722369955555801135e-04
6.928840782235060709e-04
4.701595627444458188e-04
6.469420986254713563e-04
1.429370124101364396e-04
3.733713793750627233e-04
1.095025508284697005e-03
5.534634685928111700e-04
1.540015260990831858e-03
6.586914157365970435e-04
1.102705881593000039e-03
9.134773496455653174e-04
1.190662321307870059e-04
1.149256001799936044e-03
7.020544180167566503e-04
7.091936731046391898e-04
2.200969317400865079e-04
4.745348504725712541e-04
5.684747525944816538e-04
7.886438714711739833e-04
8.984706747339893385e-04
1.258314544092020530e-03
2.094114744525059607e-04
5.385178381568442437e-04
2.845637261610569507e-04
1.259238800634344176e-03
7.156659632911192750e-04
1.001940303307579565e-03
8.673919693799176083e-04
1.095860527107468717e-03
9.795213081813152812e-05
8.831030587687767287e-04
1.338873864122367167e-03
4.003740735357288832e-04
4.430779865342611835e-04
7.663229416139710932e-04
1.303485197586733493e-03
9.007087171340543525e-04
1.037842843373561284e-03
2.540883369556164824e-04
9.231389867487543172e-04
9.183464256280971178e-04
9.671422543156228593e-04
3.054400976890416734e-04
6.061198577957013474e-04
1.267682454910707638e-03
8.706111576687074931e-04
8.690203990797393859e-04
4.159995881702796918e-04
5.605837551346396289e-04
7.512634085102347066e-04
9.745434478823901620e-04
1.524671383748569446e-04
6.237199900700330204e-04
1.075794121478849258e-03
1.603106981872585654e-04
1.360454234608921573e-03
4.771319985990107697e-04
6.770062051864349706e-04
1.059568275397525981e-04
5.494706970545754467e-04
1.591223129196942107e-04
2.408203662855242790e-04
1.051613525671941945e-04
7.588054851355601794e-04
3.782873981417332783e-04
1.178267179266281493e-03
5.464110300523078749e-04
4.169949195429965014e-04
5.964084183657310419e-04
9.545782449638809744e-04
7.045073911022409208e-04
6.731848206110647341e-04
9.015538539160059721e-04
5.174484294210697716e-04
7.171827425068834708e-04
2.400095813427354104e-04
6.134486356540064808e-04
1.360292578887062993e-03
7.877399296193997704e-04
2.847871595489411120e-04
9.513435057292142592e-04
3.405755647400052189e-04
1.066062961177275791e-03
2.151583274250815840e-04
8.016565690550218372e-04
6.523621654246901944e-04
4.028513884049965020e-04
8.417965753885014004e-04
4.251230332565268341e-04
8.298847512968221974e-04
5.426626074889170969e-04
5.700238658858484964e-04
5.215608065242137480e-04
7.218300283551951644e-04
1.762428701481053820e-04
1.553245651015639373e-04
6.744157046024206121e-04
2.360794596100853563e-04
7.333516493317804351e-04
6.353262609137121531e-04
8.793594526978792047e-04
2.150872012561326995e-04
1.341550224546759823e-04
1.465231689548786125e-03
9.644502013630349129e-04
6.875894772622734904e-04
2.322926731643309365e-04
1.259712344027615494e-03
1.050204482208269303e-03
1.130376818296398517e-03
5.964337746553506625e-04
1.038225841181152119e-03
4.458742353484353139e-04
3.814554639803019865e-04
2.789822365770987787e-04
1.130025062959763213e-04
6.421906760133438844e-04
4.907233763656900080e-04
2.993046999681453686e-04
9.955115495318676323e-04
9.924607344832976630e-04
8.413232893851847012e-04
5.508924400947312573e-04
4.641732353082717445e-04
1.473476820421912954e-03
3.217237671321932142e-04
1.158125266973840037e-03
7.185795238716128708e-04
4.539809825500955255e-04
4.651784670428936279e-04
7.729176821313469854e-04
9.244780776745092476e-04
7.199687515529382392e-04
1.171103892486570052e-03
1.489625004670927500e-04
5.956386949899362656e-04
7.592771156610294073e-04
1.760282574516556999e-04
4.189527320298614744e-04
1.408967793015048929e-04
3.241386247419506287e-04
3.548825951480169094e-04
1.163336862252660388e-03
9.103552519081599750e-04
5.106829721196738626e-04
1.637910478216831819e-04
4.825892939770603705e-04
4.168986828268194116e-04
1.150327586894906622e-03
5.883708275382821011e-04
1.229038002884489961e-03
8.050572116016601037e-04
3.725326426982156279e-04
2.870631070565203319e-04
1.155387415731715670e-03
8.942159601079348492e-04
8.006759242885602267e-04
8.487072374706368817e-04
4.858290074081330397e-04
5.833797458471667689e-04
1.129713520742541770e-04
9.708812620047102895e-04
4.595764532521056669e-04
2.697180759857330679e-04
8.478533211264303263e-04
1.091585269853826302e-03
1.375352389119391589e-04
4.970697522593245420e-04
7.498555950541738050e-04
2.802362576914667488e-04
7.825100619475929302e-04
5.951888561297684994e-04
5.360328073189537471e-04
4.742303660719813943e-04
9.372021719636402029e-04
5.945217768162436908e-04
8.676322832820225310e-04
8.139707941736128464e-04
7.779227889375218757e-04
1.058888785727481576e-03
4.156738035239159997e-04
5.164852166956728115e-04
1.282101230435556171e-03
2.956414647962393900e-04
5.514421977137209073e-04
3.363611628275466124e-04
1.212710164134350217e-04
6.087077816090746612e-04
5.118000501546753067e-04
2.596499969181479480e-04
1.089191537151792651e-03
4.757913401762430623e-04
3.888488980953978694e-04
5.357031136959866571e-04
3.840424081689483137e-04
3.554070586217707075e-04
5.571207476612138974e-04
5.276595124265492020e-04
6.568794663702633412e-04
7.185766651287300464e-04
2.316463022689422549e-04
1.187076095280979087e-03
9.448214588852551924e-04
4.277600536446442931e-04
3.855774744494211144e-04
2.105965826824173046e-04
2.948444076763282406e-04
6.853485980508307665e-04
7.788301691836229442e-04
6.029587428554559776e-04
9.000547864549753203e-04
7.045851112357347928e-04
5.690398789287571656e-04
2.346058186168099261e-04
3.154652661883469342e-04
4.816903096652573623e-04
3.728664689564536029e-04
5.351971729061606948e-04
6.833287707748039817e-04
6.648444954190222593e-04
4.464887432186286065e-04
1.595503421725913700e-04
8.351383673121933826e-04
1.869100326937362657e-04
6.221602154509245364e-04
4.091806123805587334e-04
3.949980662265505853e-04
5.958750716664580832e-04
7.436092740298271518e-04
4.251282505369252305e-04
2.689843971017308365e-04
5.667329187789011801e-04
1.035695690173809268e-03
7.724651634889739436e-04
7.236384800354908218e-04
5.723049522140022426e-04
5.595740854059696968e-04
3.825419768339323955e-04
5.337615683171492015e-04
7.343412779328198879e-04
9.898955116938472007e-04
4.593231352626850924e-04
3.357880423738071043e-04
8.480691601073603271e-04
4.563669029655788149e-04
8.816204912471030603e-04
6.165790644271451713e-04
6.519114767407589847e-04
4.653794798245642272e-04
7.360767424117872163e-04
6.346893701930760847e-04
1.696009552434458154e-04
5.120726046382999578e-04
6.456506705072161557e-04
7.881474802996704795e-04
6.482172076641026879e-04
2.491112517210126260e-04
2.905653397038109324e-04
9.568763061947954890e-04
4.638434765605491312e-04
3.301363752079179020e-05
9.043766266750445692e-04
6.142059957997524902e-04
2.827561368328764110e-04
5.482272703144580811e-04
9.218604674683059672e-04
4.742067359465690596e-04
4.938252510704198078e-04
1.414215664332703240e-04
2.575231080516413181e-04
2.963867465216321541e-04
1.269969151446983721e-04
1.728060081711288790e-04
9.514276757629082197e-05
1.937949345093266742e-04
4.414907597660209333e-04
4.956703433695238163e-04
3.113162964020990036e-04
2.021206976001103234e-04
2.411836009612612077e-04
6.591343496671257882e-04
5.228048145277272530e-04
4.100764966004566609e-04
4.134722120296931342e-04
3.433335356075730240e-04
5.763463611735664648e-04
6.540985074209350065e-04
3.643642341367060592e-04
3.677949163711046040e-04
1.111482306608343459e-04
4.841981824319314606e-04
4.713897467723553343e-04
5.311981907113779832e-04
5.286061449444260773e-04
2.989144058995726926e-04
1.314026008715836631e-04
4.712850553412879198e-04
3.631973191124749419e-04
3.002289511390157867e-04
6.004364224890100131e-05
3.912406224441217998e-04
5.104814356719643460e-04
4.142680766667336425e-04
2.156074421313251604e-04
4.860913287838302581e-04
7.060808136570260757e-04
4.237342462986097547e-04
4.040026989918212236e-04
7.041382420011191084e-04
5.001563414973827539e-04
9.792053323107288753e-05
3.200255891618548681e-04
1.731822578505904579e-04
1.274070514885418458e-04
6.058020695856018321e-04
5.935505564025395011e-05
8.488458343658691289e-04
2.470258552127326088e-04
2.021676395925486327e-04
5.676881608398321247e-04
8.791977756352288608e-04
8.521066905031837550e-04
1.189848863949267619e-04
8.165300638762162640e-04
6.292632051242910566e-04
5.828003895144012736e-04
3.900390841218634029e-04
1.408524335662750715e-04
4.002153424434552547e-04
1.912609173686163281e-04
9.911169087313949312e-05
2.129672511161139555e-04
1.546746607657594537e-04
2.792473081630129483e-04
1.980665663776728946e-04
2.467045776267001484e-04
2.331600850751925204e-04
3.823060285003464058e-04
1.879558037071717093e-04
3.214581512408597316e-04
1.816822842095053086e-04
5.038224112664600306e-04
9.106059646314580041e-05
1.954215647043346289e-04
1.484717746393669562e-04
1.481484741247540975e-04
1.800002122365103872e-04
8.660688713465424752e-05
5.359103918169706975e-04
4.712222091335668372e-04
6.333087261695058629e-05
1.033032553440495037e-04
2.531884512226567890e-04
3.094866536943202294e-04
3.898461014198039321e-04
1.763956237541631014e-04
4.035706478248510145e-04
6.347143685994296059e-04
2.588316173469148019e-04
2.452906026274275647e-04
6.446040188769396268e-04
3.487621573653935220e-04
2.035835514178404443e-04
4.840741744635998446e-04
6.197651813955909169e-04
7.675301059483184425e-05
2.021235835741098420e-04
2.345195281846709496e-04
1.442885491535462431e-04
3.117738340974212838e-04
2.173830203975401316e-04
8.543648042340548480e-05
3.487650091237482646e-04
6.126508152335901182e-04
5.023375774732833287e-04
1.361720429538337915e-04
4.837616531679943873e-04
7.292735496770513348e-05
9.836567921567019581e-05
3.358236776664267850e-04
2.285839615652434482e-04
1.378615227232977524e-04
1.711541255112801561e-04
3.447967692947549300e-04
3.428251436814629930e-04
1.653824838890926641e-04
1.560313513302450587e-04
2.041521274779727101e-04
2.087250597339768165e-04
1.940943423523425898e-04
2.106635195666851793e-04
1.897181492286078392e-04
3.808207389938894952e-04
5.964464665388614049e-04
1.380121080747271657e-04
3.243038251945630870e-04
4.089861732682400510e-04
2.981149823713490749e-04
4.510242071205836610e-04
3.530465262133837198e-05
3.056471790407445065e-04
4.685317799780467263e-04
1.907722225693926534e-04
1.611095003935234026e-04
1.265019430702166191e-04
2.967126689268646117e-04
1.035178684796267477e-04
4.020430028805777067e-04
3.369279760172246094e-04
5.829884070895991139e-04
2.124844857992411466e-04
2.152773462158514444e-04
1.207879244998400392e-04
2.522439428784384427e-04
3.164122639397793941e-04
1.784131030266457416e-04
4.185353792889011664e-04
3.366217552370740526e-04
1.786838775460280690e-04
3.926597109203586698e-04
4.279916364913284089e-04
1.985821979282267229e-04
9.140260723044075174e-05
1.929897088926985213e-04
2.025474348726330725e-04
2.503975817209500780e-04
3.771267379648495822e-04
1.328552591675907367e-04
1.467184459776214509e-04
1.335219803448833408e-04
1.896005923943638156e-04
1.966158047071607431e-04
1.548862142385694514e-04
1.519041512745333334e-04
3.731881441263787381e-04
1.232495682524360986e-04
1.990163219879216160e-04
8.145980564508645814e-05
1.054388720849641482e-05
1.144326696690304250e-04
5.095155082671820211e-05
1.656838066478382528e-04
1.809373984607253990e-04
6.014437246202229638e-05
2.063429858949858322e-04
3.051157488888222202e-04
2.209029486169305655e-04
1.486818453344041283e-04
9.178918953067317715e-05
2.774259255949556419e-04
2.595430545103747213e-04
3.051273908880608324e-04
1.776671846651644042e-04
2.642770790893635754e-04
2.468007159674629782e-04
1.758033950904448815e-04
2.485655302662553466e-04
2.719375182411089709e-04
9.046650495543310968e-05
1.750368317730793095e-04
2.283574617974478522e-04
9.874351691132460251e-05
2.262720232013666274e-05
2.083595397594682969e-04
2.261506100576596843e-04
1.496009726332195745e-04
2.611104652974839181e-04
3.077629267665310699e-05
1.882286485089180897e-04
2.039753973232417560e-04
1.083827894000368949e-04
1.598352934944523643e-04
3.419579387333948292e-05
8.934262566778136412e-05
1.775968875215756194e-05
1.396401985986171638e-04
2.393590328872612701e-04
2.479557896094495553e-04
3.123284420013737158e-04
1.859451271402427471e-04
2.234134357571292162e-04
1.009888404416367654e-04
2.751205908399591540e-05
1.843028346971522559e-04
3.685043949635941865e-04
1.392222181522561773e-04
1.050515879389943454e-04
8.689100273604563488e-05
9.873469242348715267e-05
1.631035930468459252e-04
3.233270677923389519e-04
2.913635234989358190e-04
1.324591865025936152e-04
1.340562066397187014e-04
1.375643553737882440e-04
8.347640502676212750e-05
1.262675568604340961e-04
2.253924091123102585e-04
1.576682516543221390e-05
2.341684011010767077e-04
4.625538591919990021e-05
6.431315687672159345e-05
1.336058387394742689e-04
2.164511975687812321e-04
1.965499551154742505e-04
1.779651842400532347e-04
7.444743261806643887e-05
1.667358043731164492e-04
1.598826298449837295e-04
8.145376958803474566e-05
2.430828043318230300e-05
1.659935632405456964e-04
4.287971524964333627e-04
2.599385158976106865e-04
3.493157570924759498e-04
7.544234559506328235e-05
1.209965388335829687e-04
2.247425519859761031e-04
1.666833112394593792e-04
2.605772513359867542e-04
1.689650554257058062e-04
1.198169284060657632e-04
9.847764943524143697e-05
2.577988930979897148e-04
8.745785366614066531e-05
1.051025546371918710e-04
3.677490384809008173e-04
2.605437467689667211e-04
8.460599922422115432e-05
2.340662782849732765e-04
3.705208145356634697e-04
1.442497384001496124e-04
8.461848840997361978e-05
1.653260190523852483e-04
1.491479433404176895e-04
1.184322845086987526e-04
3.642827907422236728e-05
1.382986073132654286e-04
4.519160215876042369e-05
6.561733751621645118e-05
2.596651564646902861e-04
2.701988108684658281e-04
1.461478752137041718e-04
1.170864452932322835e-04
1.472429254435443993e-04
2.809503175821643139e-04
2.112660451105827155e-04
1.586803034511519747e-04
1.380173551743563056e-04
1.415045362562924970e-04
1.085371621140537835e-04
1.354930175052708181e-04
9.232781450826145475e-05
1.551583736082918401e-04
1.545078169938027593e-04
1.924484817539910675e-04
3.149557093514513935e-04
5.948061338557656340e-05
1.880302350302609602e-04
6.070756943449157083e-05
1.447353095128608188e-04
2.243252062664062086e-04
2.346993880545829303e-04
2.184627781055640541e-04
2.120539806520881093e-05
9.763198035600164748e-05
9.923190863072114563e-05
2.161586219488639783e-04
4.347545372148902266e-05
1.416231009898652156e-04
1.257505106439841766e-04
8.125526825309448164e-05
1.156857949439493320e-04
1.377182701531842453e-04
1.980802397555841681e-05
1.821648248761993411e-04
9.146340275797538273e-05
2.163269982029742463e-04
2.261615839966632892e-04
1.343020228360119605e-04
1.118434541035058895e-04
2.753348189193659300e-04
3.425822375834604132e-04
2.529293284329961217e-04
4.841677354773542724e-05
1.124996043954781724e-04
5.674832738755047955e-05
1.728107224830214823e-04
6.050211626765092734e-05
1.481390763621948190e-04
8.888894016524935657e-05
1.568728932926695830e-04
2.683152447435787919e-04
1.776509633319631176e-04
1.177772837265418887e-04
1.380901380242055370e-04
1.835324761380116717e-04
2.288391312551993589e-04
3.026269959916819097e-05
6.866736473986122344e-05
2.559148322895984495e-04
1.988675402053065723e-04
1.018205346541627235e-04
1.457602915546024418e-04
2.983291941912317690e-05
1.465819797240740967e-04
2.989557364368790890e-04
9.152515618402875196e-05
1.024603658920904752e-04
1.431169064032413796e-04
2.518240666776548728e-04
1.293571553634816301e-04
1.668162464410287405e-04
9.521532785928723392e-05
1.531904518470381810e-04
3.155115674056140659e-04
3.390676601040916926e-04
2.119899276506544996e-04
8.796186899090632620e-05
1.664950490481122082e-04
2.608065373208809140e-04
1.209565753263655536e-04
1.826156630076630522e-04
2.554802191610783778e-04
1.561064976035857362e-04
1.217198490722307960e-04
1.487080324476657022e-04
1.024389632768260593e-04
4.536139045871020645e-05
3.620243888088864559e-05
2.484473731216654021e-04
7.360283550152680048e-05
8.103981754217461824e-05
1.517461087995632108e-04
9.487875126027655811e-05
1.407154495184642239e-04
1.552096711019863037e-04
1.193699748826408159e-04
1.396881212011111674e-04
1.792362684542426576e-04
4.144367204763048650e-05
3.625676549467955821e-04
2.070605873725719806e-04
1.292316148559046580e-04
8.995118334364146369e-05
1.841440867269805547e-05
1.294320812574146324e-04
5.165154419199125804e-05
2.041703342458086213e-04
2.597124648725594970e-04
7.799213368056377845e-05
3.441066216030472485e-04
2.808203611675350996e-04
2.658873193414596587e-04
8.723731647813513963e-05
2.457941986584283832e-04
6.401760469252186525e-05
1.832671240055137624e-04
1.832796246091690788e-04
2.649184137370427816e-04
1.981701468138045031e-04
1.535327964306444225e-04
3.211489988990749961e-04
3.439497530459358532e-04
6.011907143975179038e-05
2.599052902970901851e-04
3.275528754504186983e-04
2.717188692381084696e-04
3.052362207448422893e-04
8.527868476643325963e-05
5.103650337238462492e-05
1.625501443979181226e-04
1.079605639579785592e-04
1.839870396956532167e-04
1.396154020568268208e-04
1.340035899762733720e-04
1.459557868116911255e-04
1.267843268278419009e-04
1.671979591941673228e-04
1.531103542124339094e-04
1.948734823587922071e-04
1.245448030223200318e-04
2.442957337480316854e-04
1.217353787443567584e-04
1.022561895412977553e-04
1.500845406886538243e-04
7.395812805617075526e-05
7.044904411526942351e-05
1.475955767453908786e-04
5.869017120901105479e-05
1.107752593633473231e-04
2.480182331218521948e-04
7.920815739332479131e-05
6.943153823109866700e-05
9.826662839616740126e-05
1.014508731520001920e-04
7.683418451901980427e-05
2.688267756742228278e-04
1.263494895995558769e-04
9.341839742404983845e-05
2.010872967423011357e-04
6.447882076327463442e-05
1.070750207333446072e-04
1.217338996374480012e-04
2.576053956632462505e-04
1.295993593613302885e-04
1.137810805041842519e-04
2.160379259862075033e-04
1.641293845103056757e-04
3.910514988906117718e-05
1.386696194432656803e-04
2.961061704166888719e-04
1.219263413524938764e-04
1.218772000806170037e-04
1.375079744472362906e-04
2.441426023282525226e-04
1.606758290568093309e-04
8.038985968070400329e-05
1.631536726016832536e-04
1.264394925694257857e-04
6.118968010787928838e-05
1.067051424455026885e-04
1.375243830749874551e-04
2.478330210062736354e-04
1.817589264751977654e-04
7.287022381833841388e-05
2.544965020408267143e-04
1.688272816051146084e-04
1.668922020972817813e-04
8.993385807600736456e-05
1.514985490179171122e-04
3.372197893553584053e-04
2.566390057581653412e-04
2.047736540676590555e-04
1.298575474753965199e-04
1.964339653714569623e-04
2.337559342808415619e-04
1.648676484658313172e-04
4.603686023151573115e-05
1.567493264985001650e-04
1.623511437998302837e-04
1.012107819887888015e-04
1.477483627816181776e-04
2.912693392933957126e-04
4.329071785772254565e-05
2.521656070887364279e-05
1.589070738409885148e-04
1.808654879722766781e-04
6.939406378510771934e-06
1.227561517791092615e-04
1.628513750028001510e-04
9.535687283093807287e-05
4.109967800548166726e-05
2.230809858882366208e-04
1.679320363594130432e-04
5.492161058175021077e-05
1.986075752437647631e-04
3.216808367262060319e-04
2.093767839911431325e-04
1.221301802317404999e-04
7.887709749630666587e-05
3.178644463886983081e-04
3.395380999373648757e-04
2.483938844859196371e-04
2.535426855832928201e-04
4.754745556509049076e-05
2.369010882653447680e-04
4.950749048595179044e-04
2.329772751917458988e-04
9.661097598158471919e-05
9.864659431341468796e-05
1.289813749681496466e-04
2.604561083722823950e-04
1.083566208653285540e-04
5.861937045496411794e-05
6.591067206519407519e-05
1.823962551616137957e-04
2.057636333763651377e-04
2.060372346483082227e-04
2.033432785419758422e-04
1.361365343066558845e-04
7.668940465479804291e-05
1.129281742231897897e-04
1.152327289709724364e-04
1.757050552781464392e-04
1.614125679277115513e-04
1.328302506288646270e-04
1.152368808945667555e-04
2.318228440617866009e-04
1.411987892917858866e-04
1.189178592873123422e-05
3.772285489830860014e-04
2.723404588707484578e-04
2.498773156690437675e-04
8.093012341705299812e-05
9.578887288497805520e-05
8.876900898581483202e-06
2.072352882430560008e-04
7.023980529030430500e-05
1.419105923217056555e-04
1.656344426375512666e-04
3.386817037581412457e-04
2.884938642001866902e-04
5.941447254506731617e-05
1.742932036860482049e-04
2.144675340504532523e-04
1.344236473959224579e-04
2.800310070126240725e-04
1.213291203627029079e-04
2.684766682515342634e-04
2.105488229744291277e-04
1.318956885194497164e-04
6.230819364550105614e-05
1.006489264434265072e-04
1.190220004913046016e-04
7.537547739125052956e-05
3.052255891904359208e-05
8.423162696371327344e-05
8.076961173783939239e-05
2.012109672379674334e-05
1.032400371047350365e-04
9.640414219046817450e-05
1.784913457233049605e-04
1.672418495416850128e-04
1.660138690486314631e-04
1.510392922332933657e-04
1.957685264364553547e-04
2.269167700044576229e-04
6.283633083918214665e-05
1.206301767101144524e-04
6.289714303671804026e-05
1.373925368734034696e-04
4.485689993778614907e-05
1.400076397079206311e-04
1.268186683110480810e-04
4.437504795779250322e-05
1.140243392828388483e-04
1.463456975386217076e-04
1.853104386485314242e-04
2.007922011068001019e-05
7.529041635257122719e-05
2.985968976449638788e-04
1.739501056871470492e-04
1.729357056484418973e-04
6.992703091230137447e-05
2.238004338035665195e-05
2.359533557305307889e-04
2.988243106668525377e-04
1.132273765777286003e-04
6.052011162934982364e-05
2.477798992505427368e-04
1.168610244061766694e-04
2.869126853500743944e-05
1.301772781189390496e-04
1.996064787194070376e-04
3.200901555925257137e-04
1.955305130655135700e-04
1.227779322113042642e-05
8.871934150724844004e-05
1.322552957595810649e-04
2.698866560527858247e-04
2.418165260050765487e-05
1.236403238586085255e-04
2.291320659390265382e-04
8.460451820958351230e-05
1.697411439796931310e-04
1.913255826299505534e-04
2.099572694590884066e-04
1.839485302983528590e-04
7.512325617808771408e-05
3.065743561882849308e-05
7.483521193419093815e-05
2.498289769227753218e-04
2.835536145105261511e-04
8.224062427405113933e-05
3.965450679217778676e-05
1.362172517085727137e-04
2.124941436211585065e-04
9.745104187308641834e-05
6.655731304426686621e-05
1.557931442101942053e-04
1.721921268320020075e-04
1.752480618487191528e-04
1.419367895766456065e-04
1.314980804699646697e-04
2.862794238872063291e-04
1.610778330222826127e-04
1.505114671878215332e-04
2.121296660834295434e-04
1.952918179764595943e-04
7.894224013082140005e-05
6.547369959716370326e-05
4.624748321152782432e-05
6.533467924518672986e-05
2.226000270787003760e-05
8.531477637450090581e-05
1.961873861691327875e-04
2.048961253022087516e-04
3.120149298206260371e-04
2.086372976003447461e-04
1.280149691464041038e-04
1.978836584414945675e-04
7.923282507688263253e-05
8.048945084424960949e-05
1.487145196434384810e-04
3.356086152068612057e-05
1.297822124535761060e-04
9.441377152898179398e-05
5.722940321341798720e-05
1.091055348830836865e-04
1.945751424870889677e-04
2.005591366745275461e-05
1.675927285198198732e-04
1.849625224965108965e-04
1.365976143077340151e-04
1.151133961277538430e-04
1.089792100774072264e-04
1.003424510818480715e-04
8.829432057189328211e-05
2.088394011486027429e-05
2.056221130903617322e-04
1.802429917835127106e-04
7.741133373949172548e-05
1.149039326675623023e-04
1.587068166991982272e-04
2.043299264344666593e-04
6.106949702635705015e-05
6.507909129600292122e-05
1.794222527593399382e-05
7.920993230748803995e-05
8.142584516691540322e-05
1.797050954415089726e-04
1.107426952204566476e-04
1.770002004989116554e-04
1.271139382846463368e-04
4.438189453288061726e-05
5.354453630716800143e-05
1.527733505769366578e-04
5.592183337708516399e-05
2.775839832452651093e-05
3.296322243119821876e-05
2.013837610577801776e-05
2.634861883462150529e-05
5.068569448058640113e-05
1.036629718370605309e-04
1.114186104260858547e-04
1.580732483948825732e-04
7.612208212374045298e-05
1.293256337468631334e-04
8.394783659471841510e-05
1.112952725364243611e-04
1.965104968815973912e-04
1.036942926846414972e-04
1.346464019014760323e-04
1.021483624989356930e-04
5.499654458185489854e-05
2.413314056833154903e-05
1.741375353871807050e-04
6.515246877922945315e-05
2.913849144907756407e-05
1.685349077044898016e-04
1.630908576157872908e-04
2.446812835657898922e-04
1.517097578254657448e-04
7.811465081232851250e-05
1.855454612400893959e-05
1.603374021157247037e-04
1.297018784419794190e-04
5.101845557153574857e-05
1.570507684787814126e-05
1.010341720169035919e-04
9.077341167728393025e-05
4.038522790594983641e-05
6.748142121228237894e-05
1.354263659221455716e-05
1.101491104502367305e-04
1.162955097761087333e-04
1.419299406911576488e-04
5.363228733706191040e-05
1.180442626061073750e-04
7.300471439677930349e-05
1.756590732882893369e-05
7.978029775466215202e-05
6.843911906948493026e-05
9.323445855814064610e-05
1.486992185655194908e-04
1.025565514176866568e-04
7.291037212648012096e-05
6.673278761265136530e-05
9.510996405713156995e-05
8.664968311789906987e-05
9.927009962709756354e-05
2.192422866657802512e-04
2.337827960475005198e-04
1.720731365003965883e-04
5.741633807483278432e-05
2.768244348873380461e-05
3.770649593269594579e-05
3.085895171626625575e-05
7.964379022963247244e-05
1.722494758108460426e-04
4.938085552889615130e-05
8.650183506634604585e-05
8.528205892663769962e-05
6.617252685981914835e-05
1.124069658081259463e-04
3.415645885081461305e-05
8.309356687409078499e-05
1.055419643754135353e-04
4.424407154198165405e-05
1.218728103944387164e-06
7.706623435839085861e-05
6.646613871967243744e-05
7.875821748441195656e-05
5.857996887704755026e-05
3.880649457490940868e-05
3.920150730714811913e-05
9.404231250554040186e-06
7.854786144803414100e-05
1.048684265098868832e-04
3.941655001686444079e-05
7.356447085511854224e-05
5.860581906312168043e-05
1.027534537912349461e-04
8.174978073182929017e-05
1.402186320791640249e-04
7.670779941407975574e-05
1.061207829237916010e-04
5.837954714868955362e-05
1.341109849112991396e-04
7.275833860521577602e-05
6.084383784594822635e-05
9.289677859523925215e-05
6.285005440242215217e-05
3.038140395086862754e-05
9.457383332775051797e-05
6.531858627533696697e-05
3.143654717869554395e-05
9.272379946344061138e-05
1.209181011704581432e-04
1.245079686496602847e-04
2.625480271433517016e-05
1.220978829427001478e-04
1.274934333779558979e-04
1.372559196006352508e-04
5.453281236983311808e-05
6.252128161055095230e-05
5.365702690708096538e-05
1.144384968812611433e-04
6.374275845745860924e-05
8.857523658236254470e-05
5.152306450795950859e-05
1.127661579433851069e-04
5.571165868123172544e-05
9.151886671970960673e-05
7.350675986380250573e-05
4.605624339807243625e-05
8.353761351927528318e-05
5.377322030104312949e-05
9.594367356165184714e-05
1.011471469301481688e-04
4.665278240687346109e-05
6.711301529281491277e-05
5.512245763453478504e-05
9.000384858929246141e-05
1.046858597862673740e-04
3.330509647515359064e-05
4.353815537626434042e-05
5.008422703032427878e-05
5.479693381449833117e-05
1.060281120717221099e-04
8.392562413378242393e-05
5.045471150031959371e-05
1.016535719653909541e-04
4.995707788296739870e-05
2.036520798884176528e-05
9.033623005312899600e-05
1.489951070466579680e-05
6.375909561125751520e-05
1.366526750559134295e-05
1.373727311435128380e-04
1.015962331034607632e-04
3.608296519112190963e-05
1.144577478773089834e-04
1.099651682840725850e-04
9.237425721629758453e-05
1.331898013954591097e-04
1.997029749161135910e-05
2.461102912382672132e-05
1.247604441023512831e-05
9.970992527191368388e-05
1.186102334772459369e-04
7.501654935337630768e-05
1.063626567127721301e-04
1.376040137837401193e-04
1.079275488899327987e-04
1.109445810153009620e-04
5.219655914255115454e-05
6.484661399439611991e-06
9.677346633516341356e-05
1.010022434831064724e-04
1.644385573336756026e-05
3.772024081562659311e-05
1.267301046206254238e-04
5.218020212071483718e-05
6.039944997212091330e-05
1.155479032172244930e-04
6.919787767776077250e-05
6.133406008015261028e-05
6.756927006552869983e-05
2.374189416392954302e-05
1.064856874001448970e-04
8.637379301056500517e-05
5.997454313690408952e-05
4.611020875860066755e-05
7.245398513553505664e-05
4.422865465643030671e-05
4.500047850965864391e-05
2.235032623232715079e-05
1.815504001156463662e-05
6.214584673558705007e-05
8.676476033306054823e-05
2.479531999711999409e-05
4.069087944277603389e-05
2.773492324753591302e-05
5.633067079187946467e-05
7.780601896553319811e-05
6.848236503666076949e-05
5.829881939854475334e-05
8.007474636678739075e-05
8.631296566447988069e-05
7.389922373799973066e-05
3.334576054301022268e-05
2.360640866790034609e-05
7.073658392895769930e-05
2.283780962189795760e-05
1.070199603729007112e-04
7.389955366199724921e-05
8.425031487604003812e-05
4.408399676297405738e-05
2.716597345959598762e-05
2.844037790944414751e-05
8.805288891998758910e-05
2.089283790801415135e-05
6.442775238946201073e-05
4.429086902214584746e-05
9.145784233351068350e-05
6.477465304167234707e-05
7.594248421063527744e-05
6.449209021104308152e-05
2.575970194062953509e-05
1.234157504803364415e-04
6.358377328137016112e-05
4.357064254551630355e-05
5.381353505983269106e-05
8.296408782389523790e-05
6.522230675949602615e-05
2.679736435464348960e-05
2.942242725998542842e-05
3.738944788499173953e-05
1.750788634393558074e-05
2.114980910267824185e-05
4.291695768314852976e-05
5.764535060888951074e-05
7.202613302800918579e-05
5.173024518560214867e-05
1.010690113058097404e-04
8.072780203382132961e-05
8.020873375343384173e-05
6.174006612094448264e-05
7.068607365955879287e-05
6.311476102015674229e-05
1.060598575156488841e-04
6.424312826465212892e-05
4.365753391849537920e-05
6.981014680627070992e-05
1.221963683728058989e-04
9.502351507016491968e-05
9.737746084580043088e-05
8.228612627450644017e-05
3.631922115021121717e-05
1.460655792679397999e-05
5.583466012241915092e-05
7.503702160365996205e-05
3.777333266043780336e-05
3.344221787038930099e-05
1.688847541064089955e-05
1.090585764720165103e-04
6.507157564435733679e-05
4.532687318013415412e-05
5.915262654078094599e-05
1.565744292199777724e-05
2.545343927031556853e-05
6.728653126922543623e-05
6.637910544546806748e-05
8.623095055765260248e-05
7.648881688740600258e-05
2.810438656830564611e-05
6.443739590299351423e-05
5.504763571536533515e-05
6.339658710454263585e-05
7.174490576963982993e-05
7.803746622896766253e-05
6.214539406103875940e-05
5.489802278599425762e-05
5.644423516682386385e-05
2.002423465454201320e-05
4.714487115302992286e-05
7.863796061038806813e-05
1.261591416336227541e-04
1.862980187411300646e-04
1.032224756204924352e-04
1.945222295379075736e-05
7.512042733520225759e-05
5.158456818311100641e-05
5.959004410372046922e-05
6.435999024679467698e-05
5.302281867538085908e-05
8.232157104649066577e-05
6.368892945476024479e-05
4.887212420073516164e-05
4.486766485087663936e-05
4.036298898508335970e-05
8.364125398089104085e-05
3.608560431681064073e-05
8.167330568315224134e-05
1.370839938157218440e-05
5.439244160333884766e-05
9.359854540180188095e-05
1.007040647329947248e-04
6.550886334958337665e-05
5.339162650252264847e-05
5.404650082169961311e-05
1.957622933918024574e-05
5.282970694457151160e-05
9.217116012249090492e-05
1.453591414315327165e-05
5.576550696246756941e-05
5.142293315332676891e-05
1.476135979225957375e-05
4.524025699121544524e-05
4.815924358877523990e-05
2.416254821505920463e-05
7.093777548973971374e-05
1.780462515833143103e-05
2.314876859370479671e-05
3.755757748894613480e-05
9.359476611858030370e-05
9.410211231797664373e-05
6.665991690647355783e-05
7.145783254356585660e-05
3.810000973034192328e-05
2.423758922873460301e-05
1.036217241320517554e-04
1.756909712129256274e-05
3.016353930488246897e-05
4.333202307866113842e-05
4.155821955118592451e-05
7.175339007234213208e-05
7.118536470329126572e-05
9.760311092698588270e-06
3.189600852383246541e-05
8.863949193027706105e-05
3.787414309256827491e-05
5.978617306019177373e-05
4.871717966031667465e-05
4.463047699338759607e-05
3.498797953341405896e-05
2.276106929732345856e-05
3.192749090115332611e-05
4.323184890853510795e-05
3.938300761759317347e-05
1.011349555186858329e-04
1.010263083847400445e-04
4.284033040728892072e-05
2.182223283995860609e-05
8.017816681605379923e-05
5.392106719641602818e-05
9.160895962653891179e-05
3.805165178634546203e-05
8.236557862795272330e-05
8.380701607674227889e-05
8.529016500448086829e-05
1.127338796529925737e-05
4.425598124834587832e-05
4.592763904896998050e-05
6.244700265497996202e-05
9.114922071574463552e-05
9.223203138302659657e-05
3.391231534144185239e-05
4.225762642408737168e-05
4.867588554868465821e-05
1.227216559584309745e-05
6.763140842161129954e-05
1.205160852578324401e-05
5.551600321580182635e-05
5.005357303085442613e-05
8.574014277661954979e-05
7.123618309318517866e-05
8.100334502361591612e-05
1.022886778262423532e-04
4.576120130022383602e-05
3.292338177878010159e-05
3.671120795245611895e-05
3.416132871072910770e-05
5.209689545786743288e-05
3.111089307859054399e-05
3.237443445347959253e-05
5.171717899571914563e-05
8.105429432376531104e-05
6.419739261248714004e-05
5.268678246544729050e-05
6.631348170830171965e-05
3.588654731386538667e-05
5.544487864972487721e-05
4.165517918746084239e-05
4.959194178454509139e-05
5.491023995014399745e-05
7.268328277911577872e-05
4.950861624638579688e-05
2.917354118982069328e-05
2.984645936051286616e-05
5.380476713002881376e-05
6.440601057156991171e-05
1.169798365517053416e-04
3.096261510746925845e-05
1.037642658046663408e-04
9.372824536007421205e-05
1.297882763833793293e-04
6.911584553937498486e-05
1.920902460288820670e-05
5.438227980694619682e-05
1.351231761961918263e-05
7.833535159367335278e-05
2.217884513762654507e-05
1.758305208867099674e-05
4.220894577333656595e-05
4.536837113094144589e-05
7.960016240609552669e-05
6.657430705596859954e-05
3.203534932882544964e-05
4.887426280301222824e-05
4.676382321016714708e-05
8.380326236694817833e-05
5.980491926672245473e-05
4.428428788082988367e-05
8.467648072752858570e-05
1.315968789337199323e-04
9.766642975452461989e-05
9.997190950463564877e-05
7.057056190102825328e-05
2.570983672117763849e-05
1.497889301249309295e-05
1.499789325944759446e-05
3.029483449233514575e-05
3.713314700410828649e-05
2.940404912387810003e-05
5.283052571968299731e-05
7.933220782809603322e-06
9.764436141519763066e-05
2.367496009940692618e-05
6.634970172715016731e-05
2.366971654953336176e-05
4.153881809340875244e-05
5.609041428690455958e-05
6.145772934327341599e-05
9.207396516922794407e-05
7.155075218503913963e-05
5.585698084705456622e-05
2.750614459193933712e-05
5.360972656161985648e-05
1.392040685153779999e-05
2.399325128912324002e-05
3.914912997338235184e-05
5.212217634284124220e-05
2.258485224688629563e-05
4.513024242944296518e-05
1.078007126611328973e-04
2.359215384399154905e-05
4.829107918272885754e-05
4.693999841150239111e-05
6.732809528264191423e-05
8.406914551019347803e-05
7.027666733855582380e-05
3.373516112825995333e-05
4.834427829803503119e-05
3.255806169407328041e-05
1.485481193511590232e-05
3.173522428846116270e-05
1.464432523685702389e-05
5.693924319239674709e-05
5.523856842796870490e-05
7.495348248016402864e-05
4.961756072635296622e-05
2.323591182307671658e-05
9.428003968283293239e-05
5.107462255715533578e-05
2.199315061634247849e-05
2.274665647029796089e-05
2.504368533004100526e-05
3.412660773184063924e-05
9.900248601501019079e-05
6.385324116564572178e-05
5.602372018458773566e-05
6.744134717950150384e-05
4.009235583683227799e-05
3.129381848164742089e-05
2.447756314505550998e-05
2.246624398937485141e-05
4.645598393775997157e-05
7.515717835482728457e-05
1.094370701694718796e-04
8.770996133919064944e-05
5.065382378441977274e-05
1.757761980238108150e-05
3.716976571132922486e-05
4.585175080847845057e-05
5.921759857015563894e-05
7.221136319468949628e-05
5.529709483289881993e-05
8.981256034433182070e-05
8.667242211608608968e-05
8.038473678362207688e-05
7.252671054163699219e-05
4.928653700898165044e-05
2.172057672900729952e-05
2.231514129408017770e-05
5.527103913794235789e-06
1.587488635452199558e-05
9.382867963495157169e-05
3.219779857157714143e-05
1.692963157396460509e-05
2.644339094943554184e-05
1.322308979481868583e-05
1.899627436507591173e-05
4.986280126776924840e-05
3.680315163930399829e-05
9.312319622463228260e-05
9.105855437328606806e-05
1.575726478003289921e-05
3.351861832441886072e-05
1.230899478423824151e-05
3.668958727852453109e-05
4.898974658193976512e-05
8.135325940917701934e-05
6.319422141695480377e-05
6.081472295127824670e-05
7.402579131335820643e-05
5.100746602644497452e-05
3.279519454623985620e-05
4.545086323497043539e-06
1.477906412109924035e-05
4.381349233048376318e-05
1.613045026316365404e-05
3.021465696258118414e-05
9.412094348353013996e-05
3.019861082239087149e-05
4.046613339943427558e-05
4.533916876137676112e-05
2.252950140841656070e-05
1.744450281482584850e-05
3.549254524204711436e-05
1.404645857808943438e-05
7.859611661912702509e-05
3.327300979313910315e-05
7.642783239003762634e-05
1.277684443144252149e-05
1.297603965445702425e-05
2.562786834126328761e-05
2.900229974085266363e-05
4.553964893958408166e-05
5.636668570383418996e-05
7.345254840708690064e-05
6.166729721343912633e-05
1.442395116281835407e-05
3.655648412445427071e-05
3.444264668262654952e-05
2.870103225997542744e-05
8.600298675134794297e-05
7.387865882046464050e-05
5.467531371650488246e-05
8.063276414576728876e-05
8.367996108258550069e-05
2.446189696970495065e-05
1.077709111525946543e-05
3.676382086763372702e-05
6.586705711220701084e-05
7.863804254236509946e-05
8.055745807868526205e-05
6.983903792215525024e-05
7.017965475123861239e-05
7.657891041618449576e-05
4.404145105413600445e-05
8.284592355395455543e-05
3.144165757031539108e-05
2.155610022442875382e-05
2.487558571928371440e-05
5.507312099787538089e-05
4.887718808861317920e-05
6.936162425830657576e-05
2.562403892998806211e-05
6.115661792707116032e-05
5.134517788577243417e-05
3.961512354300999577e-05
6.053599389309584776e-06
4.159231074054708108e-05
7.013835865148964949e-05
6.256949262640755212e-05
7.085550661245780200e-06
6.258745984024536517e-05
1.273535204898005501e-05
3.516730354877590180e-05
2.206525218775894637e-05
6.162138164644049758e-06
2.919417543247251285e-05
5.337808768865817169e-06
3.787692302754603940e-05
4.526312397963115072e-05
5.703986201040929483e-05
5.966725010376169224e-05
5.252158906728830273e-05
4.907504803336008587e-05
5.000368244873205605e-05
7.335308979022257014e-06
1.183446330024561097e-06
6.670649772874006722e-05
5.681238797682916188e-05
3.341136381346850314e-05
4.059966685301906182e-05
3.968805840133931011e-05
1.903531477125273684e-05
3.776415447842707939e-05
8.210007922027426483e-05
1.026680825496477004e-04
8.379109139092680660e-05
2.008135628161487375e-05
9.786558094075333350e-05
5.784576740934341428e-05
1.176224283065314833e-05
1.859201914916522557e-05
6.266199669594089722e-05
9.676574993928867394e-05
2.882751570353407589e-05
7.391475277414251074e-05
4.640070658811939103e-05
9.454773816573661257e-05
8.027738901058110315e-05
2.174355459263714930e-05
6.486020160452297826e-05
2.441129009881450162e-05
3.973468450755250338e-05
3.326965743073976054e-05
5.603855442368947497e-05
1.556742371085824094e-05
1.111091601995739260e-04
6.396567973959544988e-05
2.553053856193088941e-05
6.693478346897629321e-05
1.057191725087064828e-05
5.578124643065049648e-05
6.716081552637482536e-05
3.765524096522828486e-05
2.301516304019039021e-05
4.186412197197078333e-05
4.617259497054688094e-05
4.333526416187485360e-05
2.509673039600858927e-05
4.854786700679512146e-05
4.969982940288590953e-05
4.685458827643443103e-05
4.235853470535113269e-05
8.261992880717378054e-05
6.043032599573373311e-05
2.290146594238343100e-05
7.681702425492974997e-05
4.218730514436653585e-05
4.050947962553877642e-05
2.781779398835503182e-05
3.108430083657321845e-05
6.773861833829488094e-05
4.049425677429601479e-05
6.929173722674235184e-05
5.341507590086057766e-05
9.743043563685815098e-05
5.477478693590532915e-05
5.857591195648576487e-05
7.271350230159493724e-05
5.274589019950537525e-05
6.364368671336428744e-05
2.075514931825401003e-05
5.986082578917623602e-05
9.108958859860635934e-05
6.555535570086649846e-05
1.681691521235527230e-05
4.861420451217530764e-05
5.050679313962846501e-05
3.627822701519127323e-05
2.620938734131503429e-05
6.430521506435970115e-05
4.301771083362704540e-05
7.101502692903959200e-06
5.693674745306893318e-05
3.151604543429215326e-05
1.247979075460307185e-05
7.945722452608503945e-06
8.159700655737416226e-06
1.355707840660176354e-05
6.369807406319325362e-05
4.287035869264755250e-05
5.430048631938969153e-05
6.119077979077204945e-05
7.842901477120174907e-05
2.016534646106266662e-05
2.070147865793758320e-05
3.733071690909127216e-05
7.320643025626123236e-05
2.532009618791898996e-05
2.881752719015317444e-05
3.247998481749401860e-05
5.501104646152382265e-05
4.937196613005051266e-05
5.466945846764275740e-05
2.256564396286223678e-05
5.852457648943315327e-05
6.614444046882778886e-05
5.499312059036422576e-05
2.566951356411654423e-05
1.571049493542088445e-05
4.589373453895863845e-05
6.658646173881125100e-05
5.123473231847669045e-05
4.617551160484188939e-05
1.935221177966413189e-05
4.198025551746406109e-05
1.882100842459466535e-05
6.209691863459165047e-05
2.266615570768356266e-05
2.470023692697935534e-05
1.404340094073137791e-05
5.544727896067836169e-05
2.396077881845073103e-05
7.328101663023757050e-05
2.992984838106398592e-05
4.564277333294932120e-05
1.815606928829752550e-05
7.297592511903371840e-05
2.368292992992084288e-05
3.058855339666070308e-05
5.762037871821369103e-05
6.903272576389512085e-05
2.006713089345547063e-05
7.752692041795901530e-05
2.369856693782331625e-05
4.552506956232463899e-05
1.488078927458814892e-05
1.549259701002733848e-05
2.670728642237419815e-05
1.159150441643939816e-05
3.642168928245885772e-05
3.577662198930893223e-05
4.964836909964585621e-05
3.703341269691712967e-05
7.055259160331124602e-05
2.408088479247945962e-05
2.859283980776245178e-05
7.859399456698089380e-05
4.347242854881875273e-05
4.176227748428755244e-05
1.061793341882042543e-05
4.495678537067333581e-05
6.391691502281168715e-05
8.747045557470570091e-05
8.573307554051442321e-05
4.109372782892518173e-05
2.331727675814566775e-05
2.710826186214232024e-05
1.321768036087427650e-05
5.394930893232014298e-05
1.296948785577147737e-05
2.960534946633382308e-05
2.221563545865497166e-05
4.289788510667649524e-05
7.402218055126097792e-06
2.613335292854580927e-05
4.006563496209846772e-05
6.582903025869532565e-05
3.301371708843185774e-05
7.203047321359222618e-05
5.906642040990500877e-05
5.910000665000424380e-05
4.607060436873146336e-05
3.728424966783215508e-05
6.835721603601818599e-05
2.530124965388147131e-05
3.078614838609231290e-05
2.306401242652546423e-05
2.472660205759207421e-05
7.664923965147897719e-05
8.487409761982922681e-05
6.739261306888746645e-05
5.948794605010011767e-05
3.505193507444860363e-05
3.097717532479724045e-05
2.820578710655206371e-05
3.248053420500775164e-05
4.083294067973171858e-05
3.333883354299575324e-05
2.436337768906436711e-05
2.005744014509493954e-05
7.112262399705042936e-05
5.344548634209892493e-05
3.238891702143787944e-05
5.961333637544441206e-05
4.868734223118153452e-05
7.543598820444473202e-05
3.031598829780556914e-05
3.959723987560262416e-05
8.559130607795253497e-05
4.366627966648646667e-05
4.256694250387029030e-05
4.957141516505935087e-05
6.353089016223863530e-05
6.930306477657007761e-05
3.165580028952534413e-05
4.441028651638922396e-05
2.711420263182300798e-05
3.027198235645878435e-05
1.639537002890077114e-05
2.569692642004456590e-05
2.110972031620400629e-05
7.716228450564842811e-05
6.510511820662269336e-05
6.931233738196869269e-05
5.394285421350112128e-05
2.602804892813633176e-05
1.251063015524336901e-05
3.511705570225280381e-05
7.848761383674320732e-06
5.578159968015812434e-05
1.782420805829241416e-05
1.691505606868267249e-05
1.053956519833598073e-05
4.447586396838657593e-05
2.824516311278715388e-05
2.998804527419271818e-05
4.585102631133446420e-05
2.769616333535736207e-05
3.900293651877109925e-05
3.029460634547875156e-05
3.569853651969434307e-05
4.216393085981437629e-05
8.365731660476019257e-05
3.389155703471975338e-05
2.664654645902753941e-05
6.521831472345415075e-05
4.456708239402477830e-05
9.947441435102105057e-06
2.573732527658132956e-05
2.608497110814480191e-05
3.978504767651946326e-05
1.558760591069982635e-05
1.336803034191198641e-05
4.545060295595056290e-05
1.553304033797159875e-05
2.037360554353589355e-05
4.033250400144090954e-05
5.550714597809799976e-05
4.806574597963230209e-05
2.211282758309260195e-05
1.250984382898956426e-05
1.915717650189021419e-05
1.674102311291924365e-05
5.341400204802519365e-06
1.669077621054456111e-05
4.115199731151283961e-05
3.607722099715730140e-05
4.155981092348892827e-05
9.971730655785425372e-06
2.886625678534725928e-05
3.162591908379601082e-05
7.029080296962185232e-06
2.881820232402689078e-05
1.284489276862707423e-05
1.802873072555678211e-05
1.415323892901744840e-05
4.282636809694785352e-05
3.547756265510420914e-05
3.690179505739295956e-05
3.884227692788338061e-05
7.763766010048196774e-05
4.520232255328955059e-05
2.209618803658942195e-05
3.935654601299719968e-05
1.443562278829063943e-05
9.791163089204642098e-06
4.964142168545789522e-05
2.214062474685467744e-05
5.044734748421782181e-06
3.391138697669759478e-05
3.252391142704486612e-05
1.808970735061890366e-05
2.949781500613908990e-05
4.068950200574861215e-05
2.739800591673054300e-05
6.705022231450022711e-05
3.325263001036885165e-05
3.084946030027800509e-05
6.704804564048258972e-05
3.508491993336648100e-05
3.981831053876379534e-05
3.253687317512424780e-05
3.112813203357801763e-05
2.495454218500669128e-05
3.453012200754117174e-05
3.539539227840128620e-05
2.820744542762762945e-05
2.643902984227275232e-05
4.563778250337861196e-05
3.938045689513375259e-05
4.583374343328796657e-05
2.317316738479623274e-05
3.730829622255137350e-05
8.979151106103109136e-06
2.901455171805300179e-05
3.918902356120189937e-05
1.520470848840271648e-05
2.199201967307277728e-05
4.731031908690975320e-05
4.178781808270565478e-05
1.190291853251719820e-05
2.549426747810959419e-05
1.935579232896195197e-05
6.203569707138115185e-05
3.817733517991312543e-05
1.992876862556300385e-05
3.371860939544251253e-05
7.128149347714326047e-05
4.605535559627830605e-05
5.610353598634347169e-05
5.432473804423336401e-05
3.297786322972786488e-05
3.686219595454509151e-05
4.215200859470923279e-05
5.760656678430587017e-06
1.242606389833789545e-06
3.008888945208635193e-05
2.371564835318702144e-05
2.095354251442758145e-05
3.492187967492143370e-05
2.514862439104985397e-05
4.919179211480779128e-05
2.432207135793274145e-05
2.703639069185842240e-05
4.303799662142555166e-05
2.599346394716950739e-05
2.047946473964445428e-05
1.182719337594553465e-05
6.640376441708346940e-06
2.506998944254421372e-05
1.527634664109854705e-05
2.797581957304970775e-05
2.719319670159293635e-05
2.983923045411390840e-05
3.876142615884373865e-05
4.890775684189076526e-05
2.642884912996557853e-05
2.662060775036965881e-05
2.515089294686857519e-05
3.740519570165697923e-05
2.711128803519595329e-05
2.730696799879093204e-05
1.683001073328332795e-05
4.576030016679586072e-05
3.724090114377271674e-05
2.949903984665993087e-05
2.993180663017365106e-05
3.430716637280943181e-05
2.745893418147038706e-05
1.624500725741876109e-05
1.397640817433564605e-05
4.818723187225240102e-05
2.031919757326956631e-05
4.586333866208994642e-05
2.768138945276275492e-05
1.239468582417174559e-05
2.987247447564796127e-05
3.809638281268002254e-05
3.632429877474665581e-05
3.569564689799530462e-05
8.583409989603686880e-05
3.416072058763675192e-05
4.032741853039742744e-05
4.187904761143089417e-05
2.049537348269836728e-05
4.778084881892943723e-05
2.959307210518698377e-05
4.528079938750338978e-05
2.736969596289961362e-05
4.745452638095565203e-05
2.005714045958174489e-05
2.939503527142624088e-05
1.396398940534576568e-05
2.778528047862777284e-05
4.209902822808707492e-05
1.679490898135571931e-05
6.445431052668375630e-05
2.599449750239169211e-05
1.086965137282471753e-05
1.923583231656480542e-05
3.415870925496258212e-05
8.831246955185231292e-06
6.115907843099268808e-06
2.755719707030523843e-05
1.665400425148013595e-05
1.525829791909818113e-05
2.816501601807077637e-05
2.837197445141897655e-05
3.159243245258449645e-05
3.410821458167720801e-05
2.523633675462625320e-05
3.599629439441904519e-05
4.421234268015853747e-05
3.275157298183282322e-05
2.598723693223050870e-05
3.292618077906132667e-05
4.415158792241188343e-05
3.096575556016315357e-05
1.600935705770885811e-05
2.057462144784472552e-05
3.619600776698625634e-05
2.180271914986149981e-05
1.448627720433463943e-05
4.410427708959021502e-05
4.301382124409291541e-05
4.601040618853340542e-05
1.580620320022626551e-05
3.427897685209108509e-05
1.924572385145016375e-05
5.224850916911594624e-05
5.670184216514853587e-05
4.442332737473143406e-05
5.503423027375711605e-05
2.758005796473131892e-05
2.107496397357923871e-05
3.275419710884295855e-05
2.320981052956483596e-05
2.944795527608919672e-05
5.279981887574867008e-05
2.364457034572336704e-05
2.372977501417221238e-05
3.845847991071112956e-05
4.740285381439121587e-05
3.234977101827333368e-05
1.931757544262962414e-05
2.855381943550500484e-05
2.141189065223674857e-05
1.195224117019994186e-05
4.278608172170986725e-06
1.920540303687350142e-05
1.158121943698383042e-05
2.797483498065351436e-05
2.939894908200918250e-05
3.266496184111679460e-05
1.922885441804003190e-05
1.322680499646176769e-05
2.350469670530216782e-05
2.022604536806953655e-05
1.592101486046917856e-06
9.971800657135048522e-06
3.326761101691970998e-05
3.976763117640512126e-05
2.314106168577052306e-05
1.164485474983423275e-05
3.377506126826072277e-05
3.129187526215251891e-05
6.105915926134694990e-06
3.225484959037634226e-05
3.010719274271237298e-05
1.880161685138499928e-05
2.766380629386162564e-05
2.971360456635538055e-05
8.773236430004896204e-06
7.384699826771679840e-06
1.520564101994555853e-05
1.990332913884262765e-05
3.602199130252088378e-05
1.927702365895405333e-05
3.546626784871431372e-05
7.672849945882321881e-06
5.185253865261324035e-06
1.743360627191031036e-05
2.876942440643862417e-05
4.605086808537548886e-05
7.780298680664192570e-06
3.067406428511315332e-05
1.466106306029411054e-05
2.803387950346967054e-05
5.424929130875401709e-05
1.184183935221515006e-05
1.883530998528427951e-05
3.713400045646933554e-05
4.265879664720749508e-05
2.986914753486898707e-05
9.314990009696706873e-06
2.356497454968789029e-05
5.832362965788188368e-06
4.221148352254046711e-05
3.965097678401479172e-05
3.620625734694263688e-05
7.364363652768471517e-06
1.487414955397475291e-05
4.544744098538337594e-05
5.050186981539039871e-05
5.268025149672662602e-05
2.497465558126240451e-05
4.610295440624193096e-05
2.395519694119698642e-05
2.050938097846253581e-05
4.743499046296867469e-05
3.605549591453437530e-06
1.711410676991253788e-05
2.504265831153985479e-05
2.723887634819780460e-05
1.563200365970360172e-05
3.223378581217293555e-05
2.648860102750817951e-05
3.109609134631951443e-05
3.314591161434426271e-05
1.303599921727440926e-05
1.718229565536005319e-05
6.819773509246659228e-06
2.282719791553766423e-05
2.169325548040172038e-05
3.885473309566474416e-05
3.907301890241596546e-05
7.886815648195860738e-06
1.971415446040343294e-05
1.646022823317957670e-05
1.846822248117498957e-05
3.165958682981436591e-05
1.328058677889527534e-05
2.180125167061059067e-05
3.666842836178284834e-05
1.182181606171991931e-05
2.536400359554130760e-05
2.950390723364234574e-05
1.584418404626577925e-05
3.354840552069668483e-05
9.814528085768374854e-06
2.293670310248992444e-05
3.507574486580078567e-05
6.597733214240550526e-06
2.804989714042716205e-05
4.794446620217483333e-05
2.255259451741746038e-05
2.911681996630021500e-05
5.519004513371047626e-06
1.844089385395553316e-05
1.894273709237196372e-05
8.241104894518091019e-06
2.931187196401593273e-05
1.343950055024365190e-05
1.432807959285161430e-05
2.598611777055585180e-05
9.092959709852556740e-06
2.161486134258622821e-05
2.826707110696774527e-05
1.025516150755181306e-05
1.923777975620434723e-05
2.683165748959710694e-05
3.620000962213315381e-05
4.165858123549246854e-05
1.438580917958977372e-05
4.252306603297501279e-05
1.733476787177352791e-05
2.713819965557131501e-05
1.147049262979711217e-05
3.678525383419223160e-06
1.248091925722213025e-05
2.231580303636345873e-05
5.476984936250163370e-06
1.251295712698324008e-05
2.116416117596785885e-05
1.296639053129494928e-05
1.568224805248924771e-05
2.887331410291061874e-05
4.518155850549617760e-05
4.208481587195993598e-05
9.716183658739666488e-06
2.969015202556433980e-05
5.751597490005790443e-06
3.117999572260883796e-05
4.767946331848193033e-05
2.519957970522473527e-05
2.558530703322068264e-05
1.897610827938331582e-05
2.181271615993378885e-05
8.114782578714024121e-06
2.438934656920938257e-05
1.963644145396648414e-05
1.904257591811063193e-06
2.219840023761891919e-05
3.680769010380489323e-05
1.779559048712784378e-05
3.944614225804455877e-05
3.989511424507357598e-05
1.869258544008608829e-05
2.201560914703005358e-05
2.670573293610602566e-05
1.353478516527865083e-05
2.699849680085460307e-05
1.797347395969174050e-05
2.544277450318834381e-05
2.970059369927963267e-05
2.879816388266763041e-05
2.644418043787003252e-06
1.135296470705543276e-05
5.921836400162483475e-06
2.988215761373475983e-05
4.976828805403294968e-06
1.701194984196250596e-05
3.952499365330522233e-05
1.048222940242585166e-05
2.692984144732685410e-05
2.579318794140660715e-05
3.804716932484051569e-05
1.469235698708795089e-05
1.546027494334487992e-05
1.669068944544387900e-05
1.619818496689872406e-05
3.146776547161879851e-05
2.396917828177324566e-05
1.111808633518367443e-05
2.044139029399962330e-05
4.212930842915548895e-05
2.447623617467768194e-05
1.018542926341012646e-05
3.489877208850234125e-05
6.381171463553099304e-06
2.055878412032183312e-05
2.409950965192752035e-05
2.104495103694993384e-05
3.716410275770327812e-05
1.325973233607122685e-05
5.384286575452404405e-05
5.369833235544758601e-05
2.399802442019627246e-05
2.594479790271971329e-05
1.825448818975809420e-05
4.993737940110412062e-05
1.818392519114938536e-05
2.781410280297766662e-05
3.142261751462427203e-05
2.065441013667052855e-05
9.930738186400127229e-06
7.510292873351575205e-06
1.316338857149417531e-05
2.417041194177413631e-05
3.456628252742130611e-05
3.286382087412748824e-05
4.200700268861481962e-05
3.283851866995527168e-05
8.566788453522637345e-06
2.115550322667411010e-05
2.933808209331547880e-05
2.717752766532576815e-05
1.664720256250190283e-05
2.395147620846636217e-05
2.176673357903475487e-05
9.748834217610172548e-06
2.299767557195721548e-05
1.046739871792000848e-05
2.656527755080329099e-05
9.579331126084260678e-06
3.903966031391303490e-05
1.363640916109410461e-05
3.130299241539785232e-05
3.577605626898293318e-05
2.857512801072202102e-05
4.805620244641337295e-06
1.477962090643706492e-05
1.379240045500244870e-05
1.731642533399798377e-05
2.365789912452826893e-06
1.863739594378455226e-05
3.548937941436118110e-05
1.143960206967692026e-05
1.067226815084600397e-05
1.866534229915339942e-05
3.710781007899557139e-05
2.847131894726296123e-05
1.607137124234505460e-05
1.683136895268692968e-05
3.611977507041243702e-05
2.868194778147530003e-05
3.180876154786897007e-06
1.208334736929164889e-05
3.136114041132652066e-05
3.832906154745736209e-05
2.385167943837053457e-05
2.691015881610117467e-05
5.614556840932337347e-06
3.302633064878401312e-05
4.088640215827884746e-05
1.571582227221332933e-05
1.802543150498266258e-05
1.866788355708480239e-05
3.807504534096517142e-05
1.196119166488743660e-05
1.927444730009579573e-05
3.744483258706841731e-05
2.921876591394220726e-05
3.253555204468135662e-05
2.125124248225701825e-05
1.809030234944481531e-05
2.912462618995017427e-05
5.129614444807112399e-05
4.680948888326188150e-05
9.363068047159327751e-06
3.800127613619890590e-05
3.563870208678330978e-05
2.356602800574354164e-05
2.404476018527028445e-05
6.367479903739145584e-06
5.920366984769624915e-06
2.831906794265129254e-05
2.297204498584908070e-05
2.904493476254947117e-05
4.756056443005541025e-06
3.528489009260773595e-05
1.338322553052599063e-05
2.343323435255963006e-05
1.953810681007002347e-05
1.186463208987309670e-05
2.433219153051205188e-05
1.331719886211484798e-05
1.129772160745029582e-05
4.386883248606358540e-05
1.809052914084888889e-05
2.559520544854346865e-06
1.460388589368466904e-05
2.444827504532931983e-05
2.501210001326650847e-05
1.056798644276879000e-05
2.540858841110569586e-05
1.090750563940845875e-05
4.904869708078804616e-05
2.289430013595229339e-05
2.798698339610740060e-05
3.407629301919340594e-05
3.541103134171660633e-05
4.645288685913296919e-06
2.457066500323949377e-05
2.490374790786662093e-06
9.311373458754939689e-06
1.788770278041675057e-05
1.280100039165885797e-05
3.252048690872597173e-05
3.028152774742478666e-06
1.493299131409239821e-05
4.574459417791184988e-05
2.631738020043883250e-05
2.055890165854637827e-05
2.999965607734278482e-05
3.067921366537915400e-05
5.460665778977594849e-06
2.695670963399975328e-05
4.911213135983007048e-05
1.479872390145585668e-05
1.994902533749403010e-05
1.262166614139018371e-05
1.979561374518383837e-05
1.010982352186533251e-05
8.232399602525301231e-06
2.628953954457945345e-05
1.203025997059444951e-05
2.550524220798319655e-05
7.140789261676268775e-06
1.904071037011803892e-05
1.526327795378102707e-05
2.939923266665482021e-05
1.858213893060677111e-05
2.451596158859624977e-05
1.137364819385594506e-05
5.185374440926543053e-05
2.382568379656258540e-05
1.665159497363964480e-05
8.862475004096890215e-06
1.256240265999346525e-05
2.596061940517637267e-05
2.173771921920989624e-05
3.703059959137536592e-05
2.517493107748245061e-05
3.865350642906592338e-05
1.632274600522795640e-05
2.092125902019994035e-05
1.359678493389405796e-05
8.458559925144938348e-06
1.940051445395018443e-05
2.663876038539373013e-05
1.725248062816461410e-05
7.145651421787976015e-06
2.610673912693674571e-05
4.190714118510966156e-05
1.400847511298922112e-05
6.753040857366003628e-06
1.848272696406534781e-05
1.849532000130393639e-05
3.121997565443320068e-05
1.494223680518132122e-05
1.865083214763725174e-05
3.538827627490611749e-05
1.566715992639498015e-05
1.393218253920666722e-05
4.435785929387743608e-05
2.373640961538733558e-05
3.182440868386408628e-05
1.084961724143964359e-05
1.302269767331665245e-05
7.799931542679963242e-06
1.309147693143562926e-05
1.669756166394527561e-05
2.474480054559891623e-05
1.487105381734730753e-05
1.299292528213306015e-05
4.806516651306956274e-06
3.055985401597414633e-05
5.218552722537846990e-06
3.927345093547157515e-05
3.759226713299322473e-05
2.642167936373324805e-05
8.635282093703207056e-06
1.443415677800929230e-05
1.825153447958285428e-05
2.608495124723155084e-05
2.587332756561824685e-05
2.942925059049309106e-05
2.457879427098274945e-05
3.955001912222715864e-06
1.436797652651054497e-05
2.190637928962003295e-05
1.486976616128235408e-05
3.623767104644883485e-05
1.543228031508606140e-05
1.411894313490254200e-05
1.178222827480122234e-05
4.493473419908030837e-06
2.294534614805802985e-05
2.160762697629037225e-05
1.923629068715336775e-05
1.667765822938866148e-05
1.476078317041047209e-05
1.827202739154124524e-05
4.789821406542315607e-06
1.215487716156928145e-05
3.800694223632739493e-05
1.785840401003806812e-05
1.289661721318858339e-05
1.324357908748598661e-05
1.321218239780610251e-05
2.521483026077802226e-05
4.166037601905227426e-06
8.138838767219697080e-06
8.429759839976715238e-06
2.573811463623256756e-05
9.746990448623293530e-06
1.300003032670984341e-05
2.636963538406945283e-05
9.681348006706376171e-06
1.303317317073010924e-05
6.028614843607096387e-06
4.971645688880320179e-06
1.234189036413479231e-05
5.748800634918980234e-06
2.537553503173662146e-06
1.537670921911445297e-05
1.231483491460638373e-05
1.193427732941470188e-05
1.798345891856259262e-05
3.577900444595213016e-06
1.094923336052889840e-05
1.616096293644433163e-05
1.217319093373044544e-05
1.853465774443918806e-05
1.673500350146151243e-05
3.479868230071653734e-05
2.197094351987723983e-05
1.803502606497260453e-05
1.853717512870876470e-05
2.203906122621108251e-05
2.583618815619479882e-05
2.058921099004931723e-06
2.767743560164199950e-05
1.046635469091754424e-05
9.104994278711599009e-06
3.084698831200069496e-05
1.332819315319349427e-05
1.588610473686790433e-05
1.030651802627820403e-05
2.961896417857214360e-05
2.022223822515523337e-05
1.131514361284054182e-05
2.073796005885452333e-05
2.202535430622638661e-05
2.891474059992857671e-05
1.021733648014895898e-05
1.268090093571694701e-05
6.242846862684354896e-06
2.181152861466749258e-05
3.577204286520401026e-05
1.741450165471076922e-05
2.744114902029121426e-05
1.212808854066104094e-05
5.978153569885996697e-06
2.193903157992331570e-05
1.923814715257935151e-05
1.297674253590481713e-05
8.581497948341798641e-06
2.312851133379253407e-05
8.892369597657585894e-06
2.505979291558987459e-05
5.785150356712392844e-06
2.438305130244696077e-05
1.645738072617313432e-05
1.583417162614948791e-05
2.089262422331413061e-05
1.874837049678836199e-06
9.574258943690515448e-06
2.453415473990430329e-05
1.412435377019786652e-05
1.710453501569505401e-05
1.272349392110897555e-05
6.411910087166488804e-06
2.359288480195240905e-05
2.040235154120979648e-05
1.919393339384604409e-05
1.857454610188571953e-05
5.335875761341762205e-06
4.039498797555498406e-06
2.289615685527792775e-05
1.141770105124017584e-05
2.298641546391374667e-05
1.370457778387859046e-05
1.826742951507737416e-05
1.669590769360814123e-05
3.636169632665221954e-06
1.463033838089312194e-05
1.485625425961702089e-05
6.863565817589534729e-06
1.262045828029089396e-05
1.199515066423476505e-05
1.703695277067100434e-05
1.623920926535431084e-05
1.329434089600745054e-05
5.298901065965262806e-06
9.912610218157364511e-07
2.053456508803511827e-05
1.132743022577145475e-05
2.807099382547936409e-05
5.179988115451353089e-06
2.115735351090260275e-05
1.140162495117875848e-05
1.432174536727288814e-05
8.567921378601738979e-06
4.054950802246411049e-05
2.148881389339767295e-05
9.175312503972853117e-06
4.189855147810929030e-05
2.520289651494109128e-05
2.480975349476743059e-05
1.581783830414436112e-05
1.177885480052376827e-05
1.787291283332739420e-05
3.541714433773284306e-05
2.159923394964999109e-05
1.318831636782650106e-05
2.186203969795591604e-05
1.991830766765865146e-05
1.057731752074093568e-05
6.362139221497084156e-06
2.677978232453286553e-06
1.595154761755376125e-05
1.304281138238255637e-05
8.047965015453244474e-06
2.063776453189299315e-05
2.698304429519623985e-05
7.403713561242492306e-06
2.175784720835510121e-05
2.425372099628411254e-05
3.419673882277641868e-05
1.825363669572269089e-05
1.478200175300327717e-05
2.181874037096878346e-05
2.405773021298361614e-05
1.384919578971671542e-05
4.025182366478288908e-07
7.516400386531961324e-06
2.885170766584477603e-05
2.598513635943274733e-06
1.538475569779753846e-05
2.513243384552036366e-05
2.992288883264002951e-05
2.220856646607493232e-05
1.713078755274886618e-05
1.912219129812039477e-05
2.294602302957007582e-05
1.740536616720724612e-05
1.212515818314379062e-05
1.189954034279365735e-05
1.846676088108151827e-05
9.986932929905505707e-06
1.189998807672558615e-05
2.018189852689636902e-05
1.546428426185042688e-05
2.262859929854347694e-05
1.849324788982890369e-05
1.721503672838427403e-05
1.003219424839921907e-05
1.333429951188304624e-05
1.563229886776562762e-05
6.575851262023789373e-06
4.588923635043360983e-06
1.254019741221658225e-05
2.085665060219673515e-05
2.609844082007462966e-05
7.682536084003845271e-06
1.163191713406153024e-05
1.293932891319137364e-05
1.002958790213411160e-05
1.677500492787906952e-05
1.692900848851587643e-05
9.530160206775605729e-06
1.111538926120444096e-05
1.986353175965721135e-06
1.379845828415408713e-05
1.715395005890721326e-05
1.096938063738440930e-05
2.641309011533321454e-05
7.174642729452999343e-06
2.775773647671434945e-05
3.014686355110961005e-05
2.790385447725472030e-05
1.744591478808407562e-05
3.178082021501183309e-05
5.535223597195881353e-06
2.905926594233666011e-06
2.458187928821008567e-06
6.596674316818120630e-06
1.789626958902125183e-05
1.418911443873695200e-05
2.038400115180489521e-05
1.469773282785810078e-05
1.099799777707104687e-05
3.484370690465126189e-05
2.134192484377590439e-05
3.346078321032687485e-06
7.982508045265337813e-06
2.213712595825170740e-05
1.155052220901369163e-05
2.577871438710998043e-05
1.479028907744003082e-05
1.058505860441580071e-05
1.095221231586965405e-06
1.811998070880121699e-05
8.234826597802303829e-06
1.400278322348253585e-05
7.142474001592408742e-06
3.937556828416364859e-06
1.695946984090713488e-05
2.698470213804513170e-05
3.204381817002779220e-05
3.176605883421710068e-05
1.624101082857301600e-05
2.345922452635727090e-05
6.734867966396543280e-06
1.797149764166125154e-05
1.820170702814511053e-05
2.515410761624549467e-05
1.352967382965073313e-05
2.431869892560038543e-05
2.112645624195147641e-05
2.191425513444163331e-05
3.796457487764717223e-05
1.587008441943690745e-05
9.543535010554128877e-06
2.893249101403461758e-05
1.505356915620176715e-05
2.546267963562038651e-05
1.271057431432741011e-05
2.115605688152210470e-05
2.315424681578503972e-05
1.884314448687796645e-05
1.166340779058933132e-05
5.591381080300415830e-06
1.447378517147739276e-05
8.913874840580423087e-06
1.110173699901920055e-05
1.417780169250677962e-05
1.681729886171762570e-05
3.985859035433558875e-06
3.275145995306106986e-06
1.772054848637659330e-05
1.588457095748087492e-05
1.043795435189515199e-05
1.895073604429624509e-05
1.092684381936494072e-05
8.090177170763051368e-06
8.443366936412861478e-06
1.534365365192907047e-05
1.781421787617379051e-05
1.176973423779221101e-05
1.709895500381063217e-05
1.913769868588599218e-05
1.023999010597645556e-05
6.956517912267013565e-06
7.221155015499406787e-06
1.297058685621816999e-05
9.626686861691420468e-06
1.155676214467792022e-05
2.151867027619486128e-05
1.238108727539535478e-05
1.883285800498420850e-05
1.698399372090217185e-05
3.745003707769111565e-06
4.782302750731302794e-06
1.290937628265850094e-05
4.407981253601431987e-06
1.099532769205728025e-05
2.189478391877286960e-05
1.631864516318232676e-05
1.380680877795024440e-05
1.798665043565353925e-05
9.716551088199945396e-06
8.278046004323949230e-06
1.538098831122642826e-05
4.807931616280411606e-06
1.212200215632737138e-05
1.015537129680089195e-05
9.701106755642255328e-06
2.751470087927775616e-05
2.373472911690797962e-05
7.405633099167391266e-06
9.228341271520715741e-06
4.548225398953570150e-06
1.512638310934489758e-05
1.236699429604199164e-05
1.407185385154669740e-05
2.170357472798694452e-05
1.296482618936561242e-05
9.005933133431739734e-06
9.096467230226436461e-06
9.838475872163063635e-06
9.694368484059158805e-06
2.088238999344355619e-06
1.617749178490991197e-05
9.042993166795221268e-06
1.635952364698134044e-05
1.275613729839680966e-05
5.235167584010016605e-06
3.218437890020752289e-06
1.881747370841989854e-05
2.097915904379287240e-05
7.494742115240197360e-06
1.451176192632951262e-05
1.165445886103780194e-05
1.651188181393074546e-05
7.749866873649882340e-06
8.604035604287766842e-06
1.411967287433408267e-05
9.507445808793400473e-06
7.553103141057228096e-06
6.192862619541429877e-06
1.391105956546734816e-05
1.844619433353649561e-05
2.439722020314110857e-05
2.177518942251880542e-05
2.110688060508718948e-05
5.136537241635956320e-06
8.909270359171203281e-06
1.257169681862006152e-05
2.184095773029215136e-05
8.947505479214730011e-06
1.198302806741247936e-05
7.955364094301726346e-06
1.439449555886876292e-05
1.822487450366282714e-05
9.858463195906083993e-06
7.904354562811415424e-06
1.307363886527236378e-05
7.335358255601006276e-06
9.954570930598828318e-06
9.394494488115107461e-06
6.933025682612703966e-06
1.958570784293953553e-05
2.018169618784661798e-05
2.179926366552663303e-05
1.656033041635826940e-05
1.922205951921819437e-05
1.751226669356265118e-05
2.874269265221028115e-06
4.187858575590232057e-05
1.597996945409939915e-05
6.600613303502212227e-06
1.198044479501255098e-05
2.611062474647543464e-05
8.101561598816110632e-06
2.303883734217098515e-05
6.213131456337602382e-06
2.009391900911743501e-05
1.058084501046590369e-05
1.067205783339757661e-05
1.029515005161336228e-05
1.445722720428899604e-06
1.199697728684858265e-05
1.020330275766501991e-05
7.116108412951959957e-06
2.786706581248177926e-05
2.623493716701951140e-05
4.628662357745279697e-06
3.183275990529972017e-06
2.929835441639515396e-05
5.779194338271301347e-06
1.076913433756121977e-05
2.079061525111801625e-05
3.590202184023674140e-05
1.344297869609646656e-05
1.498249335842950665e-05
1.409983682437951888e-05
5.408153414276676477e-06
2.092477196542924815e-05
8.301727915669193514e-06
5.105828805435145899e-06
1.049093712092975649e-05
1.755040215437166589e-05
6.879815593048729694e-06
1.670501526886353236e-06
1.784180007325110689e-05
1.013636194146205728e-05
2.198986687975403801e-05
4.837908130954918198e-06
2.364776084535570147e-05
2.368482449454739242e-05
1.392329003926927276e-05
8.039825260817343833e-06
3.384740783211499674e-06
2.265136878248567951e-05
2.165933717986323728e-05
3.020243206493840253e-06
1.365130718577577225e-05
1.012423928995302270e-06
7.957775186855397238e-06
2.437843352368288387e-05
2.138188308624589033e-05
9.047421206730044179e-06
8.470020434711924857e-06
1.416154728309936327e-05
5.528830593184665700e-06
8.616942858673375805e-06
1.008552366869326696e-05
6.803409205638949338e-06
2.040333916782855180e-05
1.601938088125643911e-05
1.900215391824963825e-05
1.073335484295821777e-05
1.046218024134512460e-05
1.901959265946601352e-05
1.440087645577412488e-05
4.649914538875823758e-06
1.050834784999113112e-05
1.162687732645026803e-05
1.001967364091570705e-05
7.300568058957528178e-07
5.471537066905683661e-06
6.154498855430553500e-06
1.002306357531208539e-05
3.388184767458411190e-06
3.997429098866965683e-06
2.356692997926719321e-05
1.198260541855926898e-05
1.015300847428857487e-05
1.320781179318525954e-05
1.557598366858525495e-05
1.129778108104219489e-05
1.532150052011346510e-05
1.054901198848074287e-05
1.959252316146708412e-05
2.488717751606409466e-05
3.604622498698647442e-06
6.771514136469095230e-06
4.765434258624471345e-06
4.533834115600873194e-06
1.269360157820320692e-05
1.617474829610916664e-05
2.255299180685342214e-05
6.824900438251224654e-06
1.283422861822937835e-05
1.811542063944321786e-05
3.691502552609789270e-06
2.445195025208884550e-05
2.565175797416905846e-05
1.415664357328084023e-05
9.360132767885666468e-06
1.411151203547680929e-05
8.599955535574290024e-06
6.778571124632572315e-06
2.315258978270763805e-05
1.674238144609583313e-05
6.470231621286083412e-06
1.776428138130528467e-05
1.713784690172405037e-06
2.213791083127898582e-05
1.504185188126604137e-05
1.789859225924644764e-05
1.265972347344401215e-05
1.528109945890460795e-05
1.029654338676499617e-05
1.366923464033886803e-06
1.099333978994327249e-05
1.906035661915899142e-05
1.406832039093146869e-05
1.960353621213496462e-05
2.765655959046076198e-05
1.884256505536623989e-05
9.757999902772447742e-06
1.457632763459013862e-05
2.045238223450269942e-05
1.281751819641734503e-05
1.164779346435208587e-05
1.089320949163933281e-05
2.090171209390519262e-05
6.739030210885329300e-06
2.009998026180817967e-05
1.267787757274931811e-05
7.401742617350311348e-06
7.396624461504748784e-06
1.789933714378858729e-05
8.437231710146413373e-06
1.045267615318941361e-05
1.088688264716112362e-05
7.106135789350335945e-06
1.131909127123583681e-05
1.501919418546882310e-05
2.961322218059161277e-06
1.171190044100631871e-05
2.301924125949435769e-05
2.598962480272869072e-05
1.814975486709170840e-05
1.066483793469039761e-05
1.747668623069714806e-05
9.628790342451274531e-06
2.246437223337741923e-05
1.541843989374781513e-05
5.665980983944441514e-06
2.736191576625267114e-06
6.355101144706923809e-06
1.251351466873137481e-05
1.946164186444085902e-05
3.406713631676684807e-06
7.053820157467665819e-06
9.272982886901673299e-06
7.181232104268875732e-06
8.972796352774564394e-06
1.043391201044490184e-05
3.673655914961732256e-06
5.658891536557865155e-06
1.312001686372979134e-05
1.485771010734455902e-05
2.574281690145125388e-05
7.525382513126428530e-06
1.037933097257130509e-05
2.476813556217545368e-06
1.555623957745008040e-05
1.014210911472459738e-05
2.066237567832829623e-05
1.381972626075185268e-05
1.285855025306407367e-05
1.312409629444716622e-05
9.277746163943394780e-06
4.508273846477797618e-06
5.920990336286549794e-06
6.924836886621054233e-06
1.075160876132826044e-05
6.974530268852810550e-06
6.861858967361516436e-06
1.636698637536343259e-05
7.314739819705992807e-06
7.035009922437427907e-06
1.731614751190436541e-05
6.263218325866305384e-06
1.018792944118836475e-05
7.371844188800343722e-06
6.840507693478963928e-06
8.788570532332289602e-06
1.334120787626190898e-05
5.074769700014191914e-06
6.486030357229222504e-06
1.192126556176212172e-05
1.608799468492112689e-05
1.797711660210547517e-06
1.622582555339785094e-05
1.916006564046871376e-05
2.882188504076462434e-05
3.167320020055356497e-06
6.948312302750020548e-07
3.122616133479520962e-06
2.290974351511380035e-06
1.084175815748862604e-05
1.101485207153997808e-05
1.340715676607116370e-05
5.601096080812835483e-06
8.794153435410831496e-06
7.410058573518697533e-06
7.075886550279750425e-06
9.726560776117844506e-06
2.421439349602581069e-06
9.743591938681112278e-06
2.811447077118499357e-05
1.858433609203504191e-05
1.711332960845960934e-05
1.408233569646814636e-05
1.487759179395164899e-05
1.574325733678879851e-05
4.540983285483785039e-06
1.807745507186095849e-05
9.599974417029605750e-06
1.682593070763692793e-05
9.437185961793342323e-06
1.529672323571198468e-05
1.995661732252805687e-05
4.891746951106981806e-06
1.834711870717753329e-05
1.418479686311419388e-05
1.226688187992355247e-05
3.087324239702920467e-06
1.605927995572986960e-05
1.600719456541307119e-05
5.846432110059600897e-06
6.506416927760328293e-06
1.858202684943550920e-05
9.192880158350295476e-06
7.155717928347087602e-06
1.049634182336802097e-05
7.038602527358939738e-06
8.811469637481384191e-06
2.160538472299987762e-05
2.820437656715902612e-05
1.347777032262931464e-05
1.911772392731595771e-06
4.052466742850909404e-06
1.497776340645567621e-05
9.733079531109511625e-06
9.758726393972445254e-06
1.153142783241517446e-05
1.021237560486016689e-05
8.953934154897171324e-06
1.800440122432361078e-05
1.581013629769550076e-05
1.538010597591009677e-05
1.831690510612095081e-06
1.055447476801432870e-05
7.555569920761525255e-06
1.357854719669539985e-05
2.390591407703601777e-06
1.605142169566507057e-05
1.971492907774995306e-05
1.239210128661828928e-05
8.877425481913909074e-06
2.029275491755961155e-06
1.014958536232698377e-05
1.346433264661253954e-05
1.554736476658503876e-05
3.387887570998345865e-06
8.671855401798366918e-06
1.136001400529008121e-05
9.913741975826605857e-06
1.127914073394748554e-05
2.110631473339750390e-05
1.316132978834897476e-05
1.366775811497087861e-05
1.082146163070713911e-05
2.845420885995411769e-05
1.997736044095744116e-05
7.715184565706245979e-06
1.043080800965229825e-05
3.397565884190107440e-06
9.218289329623531494e-06
7.617924380219472455e-06
1.525506412141833309e-05
2.793178518077542901e-06
1.930476433989046937e-05
1.186064361971018920e-05
2.061092206871239314e-05
1.065169707631136338e-05
4.338639655930577306e-06
7.429061348782870756e-06
8.301688384297346542e-06
1.722089421043292840e-05
6.141534916577647257e-06
7.490224614395128602e-06
1.628268362988528981e-05
1.564947623950872432e-05
1.068176820229886330e-05
5.792553034720407364e-06
1.874787179593731223e-05
8.439225041655059828e-06
3.281744409679017089e-06
2.210663908311183612e-06
5.375960189599187900e-06
3.250758664326019432e-06
2.898056819570182770e-06
2.720515764700393214e-05
1.955812052898857207e-05
2.146128065068983522e-05
1.218278198027353311e-05
2.043051096637618730e-05
1.831816179346247746e-05
5.482257761032968635e-06
2.642626115450395247e-06
6.239612195398800715e-06
1.021975431542487718e-05
4.944156272603877541e-06
3.278305917435185402e-06
1.361226369380886861e-05
1.129799278023193174e-05
9.026140065405257654e-06
1.808246247258869839e-06
9.158835289590412337e-06
1.172795809869903218e-06
6.806323607012321085e-06
7.612178840119876386e-06
2.945077961346895111e-06
1.387033485210334374e-05
8.699987727949817621e-06
4.183794955190574881e-06
1.408020336354786336e-05
1.043260392894687158e-05
2.175692117222167207e-05
2.156909131735870367e-05
5.393500684064768852e-06
4.479734516462977961e-06
3.715403571558611843e-06
1.011448876356900402e-05
1.485498681758641531e-05
1.914255401459818542e-05
1.480909387969909244e-05
1.655234133021326988e-05
1.088824121582397407e-06
1.140243332516666978e-05
1.385860961696742250e-05
7.006499492967512395e-06
6.866235638069052143e-06
4.525039649239958528e-06
7.632199901893211406e-06
1.225247036312948187e-05
1.058615161853725607e-05
1.203312256858793378e-05
1.326120552488238673e-05
3.340949050737353097e-06
1.880403740097756667e-05
1.315765873982686316e-05
4.572937827849559624e-06
1.237231234329169410e-05
1.210114499629381733e-05
8.094614397352330973e-06
1.476584988033420091e-05
1.477113288328525346e-05
1.058421970363871560e-05
1.069507012647355213e-05
1.005760037581511150e-06
3.904001062567611236e-06
1.865359098953416167e-05
1.505973798498468907e-05
6.614184421228412864e-06
1.181843600264652431e-05
7.802756853227462377e-06
1.218927525333811378e-05
1.306983760596830322e-05
7.180612846225429907e-06
4.441809319288668834e-06
4.339825218071411801e-06
1.599705487914174082e-05
4.759570013127245197e-06
1.064108126711160123e-05
1.530695062025759983e-05
1.257226123966658994e-05
1.498758175038145827e-05
7.951517531218720190e-06
1.462208936103791573e-06
2.033110905111815765e-05
8.626483062859165087e-06
1.101740753447704660e-06
1.057265077063858104e-05
8.059732366101825200e-06
4.900994404089026328e-06
9.632619462312017695e-06
1.513989447887464979e-05
1.475731184779405403e-05
1.293602900359090349e-05
1.193543475663561477e-05
1.951081330013611481e-05
9.151137680579423720e-06
1.713191755779400560e-05
4.865894321894351929e-06
1.317384507821861943e-05
8.767409644540462873e-06
1.651871835932083334e-05
6.851699664074078565e-06
1.154209568906684268e-05
6.818417459906093728e-06
1.160407409465608275e-05
6.899176478811773041e-06
1.119859343470050252e-05
1.413100307324925504e-05
1.392519811340004046e-05
3.154982428979365823e-06
1.094919936027969487e-05
9.221927283450581436e-06
1.391080962757894380e-05
5.791657115792555532e-06
8.200191368484670442e-06
1.759705346463859784e-05
1.355340908687034821e-05
9.451529148251972307e-06
5.081103269044421204e-06
9.809203159264192283e-06
1.903761717301833656e-05
4.843744045747723731e-06
9.278836088771724559e-06
6.721767959601678086e-06
4.794039058348861726e-06
4.065464027034682114e-06
9.396776245957826217e-06
5.630465522975370933e-06
8.210282112864342378e-06
7.015735797815880513e-06
8.191054804046781813e-06
1.591140064348700470e-05
3.049399131696417678e-06
1.032243986403394339e-05
2.029122702597699988e-05
1.294265160999921161e-05
1.539429047617125556e-05
1.786112445774207632e-05
1.226816847932178382e-05
3.767545330675004193e-06
9.547106537578040623e-06
1.625639931024690772e-05
9.826591549751606866e-06
1.383872206925075105e-05
3.031101468537381745e-06
1.322456158706305914e-05
1.512782819737246403e-05
9.508492281677797830e-07
5.459080028931917441e-06
5.664190764007026851e-06
1.058680593875070683e-05
8.829779629042955842e-06
8.132740078712322505e-06
9.072021245189815437e-06
1.077669692114252328e-05
7.372505677687420052e-06
1.348529232931726286e-05
1.825249176012045562e-05
4.943071904530570310e-06
1.832903884111525826e-06
6.229370329894902449e-06
1.359305551188718782e-05
9.097363348898382577e-06
9.655299254543093552e-06
1.406909714247258394e-05
1.152941391723392305e-06
1.166641599525010629e-05
1.466200570980240345e-05
6.559737065092737556e-06
1.928804928498456682e-05
1.753093214445484809e-05
1.433949263096278280e-05
6.928655933430136422e-06
1.034648493804137857e-05
1.034726602950842086e-05
5.726549273926363988e-06
1.149554795311308237e-05
9.194796069529244471e-06
3.594590399646304212e-06
2.437801494448676209e-06
5.843559790593874581e-06
4.529650874431090966e-06
6.243729204417803756e-06
1.073229713509586213e-05
7.402559268815666595e-06
7.857790110191021477e-06
1.588133259301934100e-05
1.862493155229205005e-06
8.852745878472496730e-06
1.109204856552458248e-05
5.524553006089798627e-06
3.631829371961329064e-06
8.276192373772134722e-06
5.142040274532246963e-06
8.362028250632794102e-06
2.442815818024381301e-05
1.085940999977761871e-05
1.945631704760684158e-06
8.596546775056529855e-06
1.083201332820278294e-05
7.627788093873296002e-06
8.023869983311212201e-06
1.183667274776610999e-05
6.599293032962918696e-06
1.026820562906051562e-05
9.584989528055852344e-06
8.453483108663566208e-06
9.569305425077003445e-06
4.347248689530252342e-06
9.466147105632980070e-06
5.826186996121370566e-07
1.719412824948294402e-06
9.433790550033907597e-06
6.131581660888041039e-06
1.099270003641746393e-05
6.992865727132333943e-06
1.259200754428942622e-05
9.836893852843720134e-06
1.173503818198526342e-05
3.491229159012384603e-06
1.207252329360291354e-05
8.444031132023519377e-06
4.766738402596116165e-06
6.855302028789816275e-06
1.402719478896798743e-06
8.016338021262999047e-06
3.978858847287015038e-06
1.793287125807320524e-05
9.253979473410572340e-06
9.214171390126964727e-06
1.079283297554734941e-05
1.099094084946980633e-05
8.256947536437831488e-06
7.398255897243485934e-06
1.344602614497855648e-05
3.971590269733561422e-06
6.344605531881447097e-06
3.263309639615412295e-06
1.118994510532687577e-05
1.848109957044049683e-05
6.677852168378152957e-06
7.231654563812243791e-06
4.337975617564909751e-06
6.253831956342349156e-06
1.689983954161437135e-05
3.224458770974990768e-06
1.377157668422454262e-05
2.129701563991255185e-05
6.256572455283162352e-06
1.479224121636217014e-05
3.616422479936168897e-06
1.002014691673808877e-05
8.204743673730184657e-06
3.043049134593459298e-06
1.534224703617984647e-06
8.134773082359019150e-06
4.839902242321505233e-06
1.154111686491434380e-05
1.474725170188685647e-05
1.680495625187938987e-06
5.604493291682245858e-06
1.081640359547532939e-05
9.762978822192910905e-06
2.612751539064447207e-06
7.182536625510564811e-06
1.080232238175550985e-05
1.115584712465877674e-05
1.533174475222794230e-05
5.954631803888536695e-06
2.976694505198929173e-06
4.911683105966136725e-06
2.261837809970967343e-06
1.374706894843341286e-05
4.079086840837880920e-06
9.915400370284123901e-06
1.088455311613800085e-05
9.083748983048470056e-06
8.018335904247883097e-06
5.260715266250339304e-06
1.005468617562023902e-05
9.820822424357830851e-06
5.967638011618889041e-06
9.823405281369325672e-06
1.705659684145519229e-05
6.738772852735603175e-06
6.551801896923469829e-06
4.376541446009751193e-06
8.866537499370600120e-06
4.215315809567551217e-06
4.960186546341054923e-06
7.918723167444761713e-06
2.077971947951632789e-05
1.830012369425964620e-05
5.093242554068867794e-06
1.299929614610868236e-05
1.509681530049782164e-05
1.268971794405036935e-05
1.394269225194932773e-05
7.643904459316174494e-06
1.301343476550241548e-05
1.689148209221013767e-05
8.451173677017592651e-06
3.088672052980394488e-06
1.431956653230259343e-06
9.225489924051798071e-06
2.311272123941310674e-06
1.060437615843805725e-05
6.130456787604125977e-06
4.603002651134857173e-06
6.173901322704757471e-06
4.936401006516456656e-06
1.047729622422902109e-05
7.468883215554850167e-06
3.380158254407410380e-06
1.135039080830656695e-05
4.260958961754714028e-06
8.538794711330175422e-06
4.410605098174169699e-06
3.950538433939332106e-06
9.889308633427057701e-06
7.512114594465083597e-06
1.237870568506338934e-05
1.380893579773224663e-05
1.544015213691306426e-05
8.362600465527773185e-06
5.487251293232077064e-06
8.690393863513323270e-06
1.145061994089886207e-05
1.510645557594144706e-05
1.056163773766965727e-05
1.218487424882446437e-05
3.061441504998004949e-06
2.165001241790216279e-06
6.677089837965063886e-06
1.255134627947305462e-05
6.858579070725995708e-06
7.801534645384717250e-06
6.806043391826643272e-06
2.368436165414516176e-06
4.295107854673984621e-06
1.465635354140741597e-05
7.561943170762339897e-06
3.547566430666706531e-06
1.279114555731022857e-05
3.975477408459091528e-06
7.078911177947917422e-06
1.461812205469450817e-05
2.639199869700434754e-06
3.727519272389283553e-06
1.358681412728738365e-06
1.328485052574492445e-05
6.818089361927452631e-06
4.430751762369096439e-06
6.698086883942791122e-06
1.214772738031069632e-05
8.766653501850526166e-06
7.983552055507103730e-06
7.709261114214701046e-06
4.061178330405567135e-06
6.148370286901764268e-06
5.190474068003584706e-06
8.916190651236912933e-06
8.093968575670014881e-06
6.973034085762738624e-06
1.436783803195656309e-06
9.838405528924479970e-06
1.169374669981235674e-05
9.280297114615753372e-06
3.954922232718399345e-06
3.679191827588335495e-06
3.519006135406118859e-06
6.178914043741374534e-06
4.051468860713997313e-06
4.640620910236798144e-06
6.780141778423577705e-06
6.462638345872217186e-06
1.311410901913700857e-05
1.385062460666680943e-05
8.367073596806655993e-06
1.253183889895132334e-05
1.698399040877366324e-05
1.353178311265156349e-05
9.627603558516034852e-06
1.337348552894156094e-05
3.369527905772474137e-06
8.443294698077269891e-06
3.838819491254290374e-06
9.034075831063251053e-06
6.530269761121359356e-06
7.626980087325917386e-06
3.924679059337196448e-06
3.153080357913594635e-06
2.836672588044732624e-06
9.014893201133306129e-06
1.085573962288408729e-05
1.749514286099618999e-05
6.065168874462238934e-06
6.147998997616949903e-06
5.777101195908812483e-06
9.604597913799327910e-06
5.431370677698191931e-06
9.177215311876398040e-06
9.911374612050142979e-06
1.355046718907731843e-05
1.475278599284626853e-05
7.300219008543912387e-06
4.123655196243553000e-06
3.984341835248067516e-06
4.989229499437160465e-06
6.406630962241045325e-06
7.030649209023963584e-06
6.132870617499494276e-06
2.371098457694617691e-06
3.374046016604445955e-06
5.514492057320717782e-06
7.213202496547237897e-06
2.444539444140327094e-06
1.928295607187730619e-05
2.121058732932227056e-05
1.853557987622768784e-06
9.610339537962283508e-06
9.114783426393329254e-06
7.462958142296787158e-06
1.223892610327791592e-05
9.539622789815535689e-06
6.578379418329064751e-06
5.850219173637453599e-06
1.396498055905849738e-05
1.342846440512624835e-05
9.513795823244648592e-06
9.323771761366455191e-06
2.366868808076515962e-06
2.217187491440281553e-06
3.881799824330876521e-06
4.042174803170451189e-06
8.816603966713777501e-06
6.196705721750624717e-06
5.202209546879766153e-06
4.775141219688863041e-06
8.509740880589490973e-06
5.974955178313715811e-06
1.017526623367710249e-05
8.565215811169292698e-06
1.073132539451298821e-05
6.874891292568666782e-06
6.782453763664781057e-06
1.035030166626257612e-06
1.972741028605807644e-06
1.109783631469092995e-05
6.640740652014198265e-06
7.786720287399716465e-06
2.086926393252986512e-06
4.145052906084238673e-06
1.007980153099769499e-06
4.936223716675708158e-06
5.768843445819149135e-06
1.024795120673632595e-05
1.499592958506014858e-05
5.871453509222806346e-06
9.090752799268688003e-06
2.429226544669649119e-06
5.290289922240678120e-06
1.411422540758849123e-05
1.328076752823005576e-05
3.997495480113607411e-06
1.754089141309437909e-05
3.501210679188048432e-06
3.580142482726158784e-06
1.008881360957017557e-05
7.621767501115111119e-06
4.126592845375632641e-06
8.677299072081859740e-06
9.369502463452463795e-06
3.991915126734436727e-06
2.384634227839385858e-05
8.487916988477360537e-06
2.842142482572419375e-06
8.536190002465225701e-06
5.139575184020996751e-06
1.038523562393793086e-05
1.800173279946015999e-05
5.465536371416981960e-06
8.777653541512530922e-06
3.003582487047923882e-06
1.142287662919514471e-05
2.750514231022570701e-06
4.921174102560100395e-06
7.524936930022274077e-06
5.474335671792294875e-06
4.375235572422833685e-06
6.210569045739871138e-06
1.069667056280098416e-05
1.064916738354384088e-06
9.467312204213381772e-06
9.639729008225541570e-06
4.538821025565453778e-06
5.901552247404260510e-06
4.441666507487047250e-06
6.676222617379374106e-06
5.646448454870367498e-06
6.117005340719548920e-06
3.530285507237102253e-06
4.763260405811172998e-06
9.197078943837737563e-06
3.817188461991440232e-06
7.389056113578690845e-06
1.184521742388419895e-05
6.897995879642435362e-06
4.495139694612968685e-06
1.051694162836243679e-05
8.086363508067364916e-06
1.075673571421626405e-05
7.775049005222932176e-06
8.989245477875248416e-06
9.429171816432557396e-06
6.224423631780423894e-06
6.569718641990360380e-06
4.998984449673268941e-06
5.936685694064351040e-06
4.828226350093322567e-06
3.364272635557965237e-06
7.445443560010122409e-06
5.103598094191584249e-06
6.490587002180797725e-06
1.522312655703460307e-06
7.559851144041967143e-06
1.275103611140238702e-05
5.479166340454245418e-06
4.284998253503832102e-06
6.512361754365752711e-06
8.568055082968937587e-06
1.465091634746230962e-05
5.035523950912742544e-06
5.933655631180835740e-06
9.498722446557168641e-06
5.210592652725494471e-06
4.152544913584194627e-06
2.786306483028248358e-06
5.542375048108752875e-06
6.648041422967935295e-06
4.877428878383521298e-06
1.019735037602507934e-05
3.138963844638936499e-06
4.425693531540902717e-06
3.114694024482850217e-06
6.085482267493409139e-06
5.800592731758104642e-06
5.131652783999785029e-06
4.544224219973691817e-06
1.177281277452914416e-05
5.313532672121307790e-06
6.738018285188579874e-06
7.941607841282607755e-06
3.403983406069654152e-06
3.446288614555121603e-06
5.258474156802068611e-06
1.257807985959584681e-05
1.488661963049324440e-06
6.401970236493799768e-06
2.597207615024923605e-06
1.021539394665016080e-05
5.018536342518721504e-06
1.037395108631979298e-05
1.734671031495188950e-06
7.021997034121755798e-06
7.521095485978354720e-06
8.386135951222011280e-06
4.070070262099158038e-06
1.389774764247535803e-06
9.640061362882373341e-06
7.524060073283720459e-06
1.524300004814371329e-06
3.693860718397584905e-06
9.027650946107520158e-07
7.636459987479039777e-06
4.222541058661077329e-06
8.069884752558820857e-06
6.615537312113174879e-06
1.084123407323335069e-05
7.210482272681686081e-06
2.820710834184562621e-06
6.166858944843256372e-06
6.283324003066167230e-06
4.666567209413564138e-06
8.402502074628695090e-06
8.042042348541299926e-06
1.117735315569757687e-05
7.650281111865237410e-06
4.557745895768386511e-06
7.813242656193437492e-06
1.321542654762898420e-05
1.232255162095371148e-05
3.127266249682395123e-06
9.628698387701832865e-06
2.086452031074377971e-06
2.268915505997334090e-06
5.087233447912523910e-06
9.888256621935421605e-06
4.946632700604218067e-06
1.160862753893707071e-05
3.260577339470389821e-06
5.415906057673805762e-06
4.670250184597974470e-06
7.576838931845664893e-06
8.043450478141098197e-06
9.700192052994621947e-06
1.024680623128151408e-05
1.657944386438598265e-05
5.088299524986972553e-06
6.692353306506218544e-06
9.604805296272589258e-06
3.889474543933205284e-06
2.645186550619578148e-06
8.985944008058253197e-06
4.581406466613565506e-06
5.983011008352627706e-06
7.549643146889308489e-06
6.963896879878075589e-06
3.944785777350916733e-06
7.300328114630681600e-06
3.581990596340880734e-06
2.400027934897037327e-06
8.323796469692641326e-06
1.090840672437313058e-05
6.351519929597147072e-06
9.297531889929894241e-06
2.805240484429616117e-06
5.732139957288594003e-06
1.049905798647920534e-05
6.653052129018482446e-06
1.581124424356592219e-05
1.092958753012548096e-05
5.513861742744208417e-06
7.122968640460248044e-06
1.003321831512922120e-05
1.073750234181649574e-05
4.522866152698208800e-06
6.553743896315181408e-06
7.272408577602100787e-06
6.481143738772054153e-06
3.431980127878060547e-06
6.976588132258765156e-06
1.183228261225837831e-05
6.518478231295908263e-06
4.474035481494313312e-06
6.506283641209184233e-06
7.607478709580748831e-06
1.173052599761021686e-05
1.356752220667254796e-05
6.131858592515000517e-06
9.704640597933433696e-07
6.609045771789549767e-06
6.803892607143230897e-06
8.768635547032495236e-06
9.880812731071270233e-06
8.375910713427514400e-06
1.219857414562808181e-05
3.855266834095481717e-06
4.948604079524347714e-06
9.100159821320949645e-06
4.136594527859819408e-06
2.751886479468322868e-06
1.231990092265916119e-06
3.096355949387144763e-06
6.784070233785043579e-06
9.228174951941326654e-06
4.146420372805387316e-06
1.359698569231693748e-05
7.986495766534236167e-06
8.189182843266700184e-06
1.142396416351226259e-05
5.729124025809124975e-06
1.216767772776015000e-05
4.025525505572565812e-06
6.423059293850523571e-06
5.480232963170465268e-06
1.003988421723070301e-05
5.041228132683270236e-06
1.578406402102767599e-05
6.287006594352203181e-06
6.789905921218392811e-06
7.187478689810422799e-06
9.706261803649282271e-06
1.266125497428146116e-05
2.427922836171726523e-06
1.647166719005795058e-05
5.428362397437425870e-06
1.244825552435710901e-05
5.418695665138481569e-06
7.974813972004726168e-06
6.168224210222814583e-06
9.186423978673412572e-06
7.511391507048188965e-06
1.030841937835187363e-05
9.554964340519037886e-06
5.565424569774399640e-06
3.649758310121117608e-06
7.490199357601904980e-06
9.683516822771818061e-06
7.244002278127341683e-06
5.775123736321790047e-06
1.284602763056296179e-05
9.240237703471089372e-06
8.828394798168680700e-06
8.183570582758141178e-06
1.014142694633441128e-05
6.618735605992562663e-06
8.725854636732289572e-06
3.997450721734838053e-06
2.726928775578980031e-06
1.221342712187092716e-05
9.865967282549386173e-06
6.110931938461798800e-06
6.637030721251437597e-06
5.975314106510969575e-06
2.374441179392849289e-06
5.995888792667410773e-06
9.176154646344124427e-06
1.177810557968104917e-06
1.091460865600386218e-05
1.066375036215078585e-05
4.874660750215929262e-06
4.981959132364714909e-06
8.625571070603175902e-06
4.893861814000555262e-06
6.590129392721568431e-06
7.810483166063180333e-06
1.167040909774514290e-05
2.514380846305607573e-06
1.786275980807713526e-06
7.070306132861356801e-06
6.679720011956734336e-06
7.205994310011286739e-06
3.097347447147024837e-06
3.232741265981173807e-06
3.252966923996712563e-06
3.583615751206224937e-06
1.276735192820231386e-05
7.462831910954200261e-06
4.502346214527288389e-06
4.339132905525473751e-06
6.782996432912610957e-06
1.028405678732228797e-05
7.195297327905925137e-06
1.118565210626172219e-05
6.220602676755391780e-06
1.180135921658735093e-05
3.031665949311526182e-06
1.360586453224088359e-05
6.032124936169764941e-06
4.609381827489078209e-06
1.175316242528542293e-05
8.554249678141451308e-06
1.719752797440948424e-06
5.164454534030909809e-06
3.933424344643695602e-06
6.658865479431941620e-06
3.016747414245230544e-06
4.103388530850791305e-06
3.271647869339564970e-06
4.613863233644177793e-06
6.063203379664807684e-06
2.889677878006584044e-06
1.532322539449937557e-05
8.109607719768637487e-06
1.045219054401264712e-05
1.265047983962365815e-05
3.612681018027546902e-06
9.115971977094123929e-06
5.609422639014306059e-06
5.647944036192375402e-06
6.619352369562288430e-06
2.909412810780025580e-06
7.040757130010361458e-06
1.678225932962362757e-06
1.633402774708032941e-06
5.269395404493498924e-06
1.017183970336623533e-05
1.240413002536126329e-05
6.985506394709479432e-06
1.064977129553962588e-05
4.648652764546543165e-06
5.468793421183279095e-06
3.590283781257378257e-06
5.658275179570726945e-06
2.976020343536033541e-06
7.220207386316078212e-06
1.168182354296613061e-05
1.002738947895015505e-05
1.257126245415704392e-05
4.956737550998045753e-06
1.056213331084309083e-05
5.260094586871064430e-06
4.160791718469244251e-06
5.065705537117673754e-06
5.750926295290630193e-06
2.671944008177766556e-06
1.049564450808178148e-06
4.734573266920325609e-06
3.177737312297381742e-06
4.171874918785576148e-06
1.054684968891349137e-05
1.063290824627797835e-05
1.299253699885898317e-05
3.698334725007083622e-06
7.995987827120856322e-07
3.625796957147373517e-06
7.727646802335561924e-06
2.025547473589087348e-06
7.490659379511983400e-06
5.412090279245585581e-06
1.322575685692628966e-05
1.880763871349667457e-06
4.865477775086630928e-06
8.987800887889983541e-06
5.218347875793485006e-06
1.430669236539911166e-05
7.612493722679754373e-06
1.579163721358977498e-06
2.322700774134536640e-06
3.785810268875665847e-06
1.845830807863141460e-05
3.077945651199248304e-06
3.601970374931630667e-06
7.162778640462292659e-06
6.043067093254433197e-06
5.453138773061658362e-06
6.832695067324138152e-06
1.617667381287567614e-05
4.896722116703079939e-06
3.229134491749441619e-06
4.973474320398322246e-06
4.197588797433296494e-06
8.445423335068959610e-06
2.547492253846652547e-06
1.049697256961417296e-05
3.796559119277802492e-06
3.991747425544288783e-06
5.096400189281817787e-06
8.787831414234614346e-06
5.710594216267215381e-06
9.874986425096809613e-06
8.970098442057586335e-06
4.510269190457195437e-06
8.123645256398144744e-06
7.716154118088791632e-06
5.076798657880666862e-06
6.766351107378250942e-06
5.227477066455488532e-06
2.977678705316113576e-06
9.291188053806643713e-06
4.910832769595869283e-06
4.885398906711870954e-06
9.015446445195037734e-06
2.246640304412229227e-06
3.901453167882736113e-06
5.331169284040698083e-06
8.099706118937430096e-06
4.347339388028475573e-06
1.367085353108116010e-05
5.159906309787274188e-06
1.223261704923319061e-05
8.206451293630701089e-06
7.361453722783183816e-06
1.570859155911534537e-06
6.363664789588812217e-06
7.516974414041501995e-06
2.175380791648451419e-06
9.840569407244627296e-06
8.474543968018189360e-06
9.737587208974587985e-07
7.390829956684744253e-06
5.976112236657863564e-06
8.775488069944599611e-07
4.004576344946495270e-06
4.403460347057964695e-06
5.308915136689969282e-06
7.403528634644288660e-06
3.198350556363884879e-06
4.526582436551075633e-06
7.163081468013304539e-06
7.319970534997469656e-06
1.344314675420209112e-05
8.901593115305109891e-06
2.053032458314234695e-06
9.820060023948130293e-06
7.253617968859176282e-06
2.621556101811529901e-06
1.454771684094702112e-06
2.519399624858824791e-06
7.479109113257005486e-06
1.359768493157030636e-05
7.506653316332653674e-06
4.900230947331011827e-06
5.190600855455155844e-06
1.060176163944369550e-05
3.193509487509048807e-06
6.244159375824898269e-06
2.933676581342511782e-06
4.271423810163854354e-06
3.262323918154089088e-06
8.212671441786892132e-06
2.522343112086347894e-06
2.695372376780026094e-06
7.319883860063867452e-06
7.115668379966488389e-06
9.317879719826752425e-06
1.141523379586661664e-05
6.642371388166493749e-06
5.764736574508884639e-06
1.559441136271178091e-05
9.560994466052652905e-06
6.084315111024208198e-07
6.316759671134364998e-06
1.649952016911633993e-05
5.783719334083472805e-06
1.397152030746456883e-06
4.028015033984874240e-07
2.361426910650748683e-06
1.262995115177959020e-05
6.405433755237243189e-06
2.750776331682770175e-06
4.828101562539713237e-06
3.529351325644364615e-06
9.899213394477331980e-06
7.242018124760638516e-06
1.241635788980769870e-05
8.390159536615642512e-06
3.616364458466711597e-06
1.084070359504164760e-05
1.363233396444584243e-05
6.413468006274934899e-06
7.401325320647124833e-06
1.930833893105389601e-05
3.922931272339611188e-06
8.264331263740712759e-06
7.438102411537740929e-06
4.184448161273803206e-06
8.608730578172333101e-06
2.488907078813291872e-06
4.759398653810357055e-06
4.705917420702177819e-06
3.110873318980779584e-06
4.545659512736441822e-06
4.162229092614239293e-06
4.284221910742943250e-06
2.068429703851510610e-06
7.066738227211822931e-06
1.480911942334535149e-05
6.011297987143710944e-06
1.468833563801609399e-05
8.373015163586694168e-06
9.616721740973339385e-06
6.886583878782037165e-06
8.428274453567522899e-06
7.843078659065808646e-06
3.509111685636517657e-06
1.181767132029214854e-06
7.167110839738928242e-06
5.916508642019801753e-06
8.203917143440445866e-07
3.852000050106761408e-06
8.427972790360476263e-06
5.639846031320174632e-06
5.215361293056893676e-06
1.877523651160104000e-06
1.257776074436558026e-05
3.903355678333205105e-06
2.019537439487950552e-06
3.346707382551366741e-06
5.984605491759139688e-06
4.994181082074111317e-06
9.687862558790283379e-06
9.653195602303977357e-06
8.764986419677498362e-06
4.586382011601540678e-06
7.281332789107931795e-06
4.927356926434719607e-06
4.171789430204381857e-06
8.627975404799008245e-06
3.080824825593845225e-07
5.231000294628631415e-06
1.189044544172619999e-05
2.762158887656676313e-06
9.358080565584891433e-06
3.955510758173188517e-06
1.222110743707054043e-05
3.476125306083498131e-06
1.462238077683297019e-05
5.423794041546259533e-06
4.304918758902872462e-06
8.807821516611572497e-06
2.589881576204338705e-06
1.669964604846490877e-06
8.174555952078893428e-06
3.080123198002805832e-06
7.360221657377754204e-06
2.201081361039096950e-06
4.904058184542329062e-06
7.441327372371513725e-06
2.381327446930661572e-06
5.749206346111633743e-06
1.147941859177428461e-05
5.037757255869076896e-06
3.621660361016868322e-06
8.287016598447529740e-06
9.855576958210238430e-06
7.194812486330805225e-06
8.282881610198851918e-06
6.505431667748683315e-06
5.358827573580899656e-06
1.027261580771986447e-05
3.308174455715601938e-06
8.792808644536389043e-06
1.619380255145810285e-05
5.858296530759646464e-06
7.712758697766470449e-06
5.128955311177575939e-06
3.874004174625028776e-06
8.115670459473693602e-06
3.501821112606114341e-06
6.307890684413742427e-06
1.346612773534139921e-05
5.522346145201330037e-06
5.443216029028544429e-06
2.898559686979551419e-06
1.147586097341647370e-05
1.095732731416418789e-05
6.259028130978527927e-06
7.362650470717636747e-06
7.325719907372647396e-06
1.015020435978390789e-05
9.122766238697913493e-06
2.633486718667166942e-06
5.649947885700018371e-06
8.830459813866390408e-06
7.989004677431748788e-06
7.103992099955233265e-06
1.992639587305516650e-06
1.494904061602512754e-05
2.528412077892894048e-07
8.247698390791423665e-06
5.004377865374344901e-06
4.779630405346278098e-06
5.600274142903595256e-06
3.492312562670758236e-06
1.042655615829353655e-05
5.750026463750838770e-06
6.718031743070433696e-06
5.033219591279386154e-06
6.731358532819094804e-06
8.030876546533149532e-06
7.051706704471777380e-06
5.390227926261531111e-06
4.625111335830745477e-06
7.682764486807456685e-06
7.377405404980063278e-06
8.344298788324705989e-06
7.457799855820795242e-06
2.521458794055485893e-06
5.733453931985451787e-06
1.682520793225839910e-05
7.888890508643048625e-06
6.704595943197151514e-06
5.936500477803976327e-06
9.001338668886594242e-06
8.883278107323954980e-06
9.892441637813477408e-06
5.666596673291435437e-06
3.696014428540396527e-06
1.335587339049946032e-06
3.645194368893189634e-06
8.095983243825589842e-06
1.863011906909409707e-06
4.668784188261739864e-06
1.367703180927260756e-05
9.635869733618163523e-06
1.010536302518301150e-05
6.075589988135177571e-06
7.832162982726473186e-07
8.819174462102538517e-06
5.855880315980084858e-06
1.669387193472687497e-05
4.289777393064743428e-06
8.938610776848893432e-06
7.160290041302896923e-06
3.019511031923957460e-06
7.190810291327865275e-06
3.228405006595588283e-06
8.503772856281227230e-06
9.951050162362844938e-06
6.410162774654246460e-06
1.771187492383826232e-06
2.985125993621518650e-06
1.005429709924987407e-05
4.240954045414746914e-06
3.908185401569720287e-06
3.699757567751639725e-06
2.762806039792947809e-06
4.786096702444532959e-06
6.955822174756381506e-06
7.165931959648403580e-06
6.886865034375863331e-06
4.398753619783187545e-06
1.090869074102216477e-05
1.590520363011232845e-06
8.497063197787950431e-06
5.768635459737510009e-06
2.411741335952243592e-06
9.737714186238496063e-06
6.793032865091145097e-06
1.870206887209679829e-06
5.244973564852341302e-06
1.887809773232815620e-06
2.523471462568471009e-06
6.731290347088282075e-06
9.259710596116408951e-06
4.286087688939953042e-06
3.420021602059766734e-06
9.864044947655524318e-06
8.929367842716553059e-06
9.453388873451964674e-06
5.198645954435507199e-06
9.056045555686988998e-06
2.854230101508727093e-06
4.503785904991277241e-06
2.791762798991932800e-06
2.246346783497827493e-06
1.042177696282581135e-06
4.649783989774958260e-06
6.269991374104195586e-06
5.693925956514118877e-06
7.282073968575462887e-06
5.751450594669262799e-06
9.186801574712961886e-06
4.782477475663358173e-06
8.246290724086830146e-06
1.223064203587997444e-05
8.933588531900775822e-06
2.330201445374661091e-06
1.002125325330420831e-05
5.122912833066711440e-06
4.375310867935450471e-06
3.690983097193436377e-06
1.489517475577707240e-06
1.204006544045448244e-06
6.128248930375300264e-06
3.811859247802492947e-06
4.605512033209612829e-06
1.579114817224715631e-06
6.155387148945888403e-06
1.037519597780997050e-05
5.541966969118006490e-06
1.144872393117278271e-05
3.441150951240087924e-06
2.759954441776548004e-06
5.301229531187150907e-06
8.101134911776475462e-06
2.524474879851293274e-06
8.243686476986904362e-06
5.171875283038090015e-06
5.866124658641723937e-06
4.339205126824795008e-06
8.450196797784991309e-06
7.889712608793990079e-06
2.923862842355794671e-06
6.597868024023949874e-06
5.277963674518628381e-06
4.290437729944398111e-06
4.977155274560343353e-06
6.215543755103881436e-06
1.125159636055390821e-06
1.127214912163785713e-05
1.901647973716366247e-06
7.918916288221371539e-06
5.015411134766293158e-06
5.663217683667101262e-06
5.048519346543571227e-06
6.361248680358272654e-06
5.044894370002316088e-06
6.895439725319887159e-06
8.306886105117064961e-06
4.985845867400904317e-06
4.633651137043088869e-06
9.882493341862632881e-06
2.368978472311087611e-06
3.000037707540230582e-06
4.988738475370457591e-06
4.034620023451523390e-06
8.081390771318485992e-06
7.778150239188029387e-06
5.297064843003973556e-06
8.060239589423474825e-06
2.948725291214587094e-06
8.572115225340045733e-06
2.347901806244954716e-06
5.409196820109016240e-06
9.342614964058449289e-06
2.332058930064136457e-06
1.233324962136817413e-05
1.191273157041374876e-05
8.290418936102426125e-06
6.920625829892184736e-06
7.602550578075647598e-06
8.888746376402210001e-06
4.985761729712081286e-06
7.842034584113813841e-06
1.117073678762016722e-05
1.062362002082661311e-05
9.146940975482933847e-06
1.200767972554661436e-05
8.513285370448046079e-06
7.428163094467256029e-06
2.040323442992190982e-06
4.011920033577467897e-06
5.060137303399201920e-06
9.604999746074691444e-06
8.601248892342055436e-06
8.795704198284397772e-06
4.265267826934090595e-06
5.628068987676725752e-06
5.463750246852742199e-06
5.455948394951562464e-06
1.020103884216687852e-05
2.220146145987720597e-06
2.465498817214807335e-06
6.935832216198329080e-06
6.154571577590655592e-06
1.173903182508757082e-05
3.864628222821594337e-06
1.621643364361771194e-06
9.976638704768811270e-06
1.055771755413968472e-05
1.706044590431241183e-05
9.641478323343972634e-06
3.713548687912151787e-06
8.888395453748977680e-06
6.210567021676954659e-06
9.355038769150099035e-06
4.264419901383325896e-06
9.682511856840637704e-06
4.076183689143947800e-06
4.362951665872564942e-06
6.707451861927274409e-06
6.658830270246503102e-06
9.586036346024365877e-07
1.312470558122921444e-05
9.792624689416404936e-06
6.272641898233871760e-06
8.198683525201620325e-06
1.956602507823893621e-06
5.288404692757729973e-06
6.420347829293777213e-06
8.202935501814394845e-06
3.370032100979408424e-06
3.168733457272479454e-06
5.003116951976569465e-06
9.896427037208379795e-07
4.166090719378735237e-06
9.693629861182609755e-06
1.652963950719990862e-05
1.367025527313817402e-06
5.072086722287755739e-06
8.415930630209067753e-06
1.295919977561741087e-05
9.503467861997066127e-06
2.902667695217495179e-06
3.649754770890190778e-06
6.794541433248841097e-06
1.096123368693551040e-05
7.590353816517800097e-06
7.094130157116059182e-06
1.940111442454943159e-06
9.035942730521834932e-06
1.577422964600015486e-05
5.327821784005339145e-06
3.994484010270107643e-06
9.866154614485619641e-06
1.016471577456102730e-05
6.647715355571287099e-06
2.895660633471939544e-06
2.354496720246162631e-06
1.010142997793157125e-05
6.556792715717935378e-06
8.307435800377351191e-06
1.998427317238113340e-06
9.789733030830676967e-06
8.287515601700724108e-06
6.082444335394432735e-06
6.871314897088231088e-06
3.219487138626994943e-06
6.084938901552862159e-06
5.806031085335496174e-06
1.014682676987185610e-05
3.906114041996082129e-06
7.621767971291106153e-06
3.158180798311878494e-06
8.771482270562853454e-06
8.328697806054005407e-06
7.962032497292431983e-06
2.793953641801621526e-06
1.178953829490550167e-05
6.389193852620732739e-06
1.276880442055967912e-06
1.043795034785091092e-05
7.264687035958754649e-06
4.088426379237570484e-06
6.575010779467206405e-06
8.594182166023957184e-06
1.423344465001466461e-05
9.549809340420540029e-06
4.979027894582971975e-06
7.780690487016630438e-06
7.302968247927472186e-06
1.383818746218807135e-05
7.044425501880600778e-06
5.983759559995354071e-06
8.023329628402402715e-06
1.025739298453019371e-05
2.116231518507767816e-06
1.695421351507896362e-06
9.475442003972952816e-06
9.169255569586374339e-06
3.490935462764941479e-06
6.601777330050317756e-06
4.725339215896103205e-06
5.657785978866590114e-06
1.039310026459862589e-05
3.265259171336702917e-06
6.983715460477610021e-06
6.587717966397248921e-06
1.132148651660175904e-05
2.024609345578201606e-06
6.617714489545402518e-06
1.251141379489071955e-05
9.825856836780216380e-06
3.674936983900097197e-06
5.481364466399201761e-06
6.166949682535913299e-06
6.046764530892114520e-07
2.100010097871535814e-06
3.537372305748123660e-06
7.958927415809478225e-06
1.285673585736239291e-05
1.030491341822106160e-05
4.839389463687663052e-06
8.061315023892662800e-06
6.335560786634308888e-06
4.392190455394382624e-06
9.504179290836140567e-06
2.342691710702675483e-06
7.092586213943980459e-06
8.378213764861120006e-06
7.546084623362681157e-06
6.589459559176241848e-06
7.387604211745934833e-06
1.711020968446018799e-06
4.890226817214236202e-06
3.488237915477868368e-06
1.224766427803520171e-05
5.280245363469922217e-06
7.364458599662241510e-06
8.395927369646044754e-06
1.035735764810925648e-06
2.177992257357751053e-06
6.064951489920200557e-06
4.481130851653689592e-06
9.957219216884539959e-06
8.770628618310107852e-06
6.580382395902460572e-06
2.976870927114849543e-06
6.390498158640239532e-06
7.378738728045921952e-06
9.573165028467257119e-06
9.594958282037992505e-06
5.116998531536016166e-06
2.399703016506103890e-06
3.289104546702600447e-06
1.164810049569674655e-05
9.914317077226290038e-06
7.543534116527978876e-06
1.360171852890069504e-06
6.918456548790596252e-06
7.309272303352524584e-06
3.912147920457252493e-06
7.666505199536178744e-06
6.459595829022861383e-06
7.281458696631506859e-06
8.381240537674215663e-06
9.945329395890757106e-06
3.566984078788224672e-06
5.734037515334890885e-06
1.486204722843271522e-05
3.702638721091210718e-06
3.304657067304285258e-06
8.193683474631401211e-06
5.069322044610323479e-06
1.707404554795603134e-05
5.016541786621683134e-06
2.746837585348856421e-06
4.227608058558273683e-06
3.833136618500880484e-06
4.506542645800762474e-06
4.606799904931714385e-06
4.552860928514973795e-06
9.571424245548681818e-06
8.289923949046892993e-06
7.339535623574215427e-06
3.430531084423217593e-06
9.612431397688068514e-06
5.071161458722265408e-06
6.594413527913869315e-06
1.109987154215824155e-05
5.619329480125955420e-06
1.162936106768408276e-05
7.565544782027597872e-06
6.914314106408727435e-06
6.950671138478975447e-06
3.103770458937003118e-06
3.701574925397068978e-06
5.930598264894759094e-06
2.858894100855095055e-06
4.773023591779247869e-06
1.082602216246358189e-05
6.369101782619707557e-06
3.174992812512367120e-06
6.517943841246675470e-06
1.726501166861828604e-05
5.671899833237262812e-06
7.216978525010670523e-06
4.822766699671962483e-06
1.203126916456396117e-05
4.784609267484590674e-06
5.214785417397722166e-06
9.495196282865461012e-06
4.950426805805896583e-06
5.186034995352782425e-06
7.144263407003320655e-06
2.103644716495706620e-06
9.715796783375793880e-06
6.725930394572607172e-06
5.064290309371312400e-06
8.966073669643312733e-06
7.189318568582250817e-06
1.458566747465394493e-06
8.924898049842064360e-07
1.340427832889591340e-05
3.613426188375957817e-06
4.541193609708970637e-06
1.319361183487204385e-06
4.721421801372677566e-06
1.140408576750363853e-05
5.734235115892245543e-06
2.350538182755439039e-06
1.244785550798762891e-06
2.988415509271028397e-06
1.202465447581123518e-06
5.851640026099504502e-06
3.576950671742249158e-06
2.609872340919914866e-06
8.629908913125056570e-06
3.228218175367106444e-06
3.965046925724535904e-06
2.797306028021796425e-06
1.569537596662609918e-06
7.938219022138806935e-06
4.489965169482882011e-06
8.144107901983046589e-07
8.630727278523302320e-06
1.014872819581077721e-06
1.209336366270311169e-05
8.692716208681121364e-06
4.205866559388848440e-06
8.748482306627294123e-06
1.826418342614604817e-06
3.775747433497492225e-06
1.901242624174318678e-06
7.963199662014304786e-06
5.647635843145502090e-06
1.387319486722425930e-06
3.082629069522838525e-06
1.803352268235157978e-06
8.308573590819986839e-06
7.493268873414357465e-06
9.277641195085729422e-06
3.016679593076381451e-06
7.421047825682746593e-06
5.388672454596133310e-06
1.934895244288659935e-06
9.250528582165057408e-06
5.359109582786386548e-06
7.649628145113254575e-06
8.426021545263728791e-06
4.231015328002035775e-06
3.080393612890378472e-06
6.715595120572517829e-06
6.109673197588063845e-06
3.919382900218922785e-06
4.071919974596127138e-06
1.965458984572722537e-06
8.130955265162606173e-06
8.048747461242455366e-06
3.021058117812042201e-06
9.708380621661663162e-06
8.878645296014990777e-06
6.264182266318808730e-06
1.147266579856629668e-05
6.581404209936423424e-06
9.235771125487923926e-06
1.086202836435124118e-05
1.019545627571938756e-05
1.098819321839785376e-05
2.054601416926077469e-06
1.290283671549003973e-05
5.552019270054390712e-06
2.410043913576738123e-06
8.677421004767780824e-06
5.309486313808507724e-06
1.207723918488799251e-06
8.995091624687838791e-06
7.852917721963574552e-06
5.495149322512211091e-06
2.729240170364808918e-06
1.018289071207192213e-06
6.400538671841405421e-06
1.030784813192992276e-05
1.119264680039736744e-05
6.323427688943415929e-06
6.487965463817271751e-06
7.475476797945657489e-06
3.932344403210759429e-06
2.984027353416911046e-06
3.977173031409622501e-06
6.647787085553522226e-06
5.695175224555585037e-06
2.122830552549673245e-06
9.515910004782633135e-06
5.757164154568577541e-06
1.780622494160712657e-06
4.790891055122287420e-06
7.284008533168345667e-06
8.056053060531637920e-06
3.414280730175890043e-06
1.907993830692896718e-06
5.964399244061387260e-06
3.662508136018619008e-06
1.880480969168619202e-06
1.182631924821813058e-06
1.418090901157382735e-05
2.033322331520604539e-06
7.266449921804282069e-06
6.927525274903815651e-06
7.125954412833257072e-06
1.163865623045755861e-05
3.668860915845364639e-06
2.582083045161359490e-07
1.251158459398399913e-05
9.651915106557812940e-06
8.663043080027277317e-06
5.818567882264676444e-06
8.366776293437207452e-06
4.104829809418840103e-06
1.183456117134690660e-06
9.082882397955185808e-06
3.635497821341582341e-06
5.986147244662469570e-06
1.076669455189695835e-06
1.030218853511028945e-05
5.700818069127042998e-06
4.746507270376483811e-06
7.454161925782189591e-06
9.639638069696568478e-06
3.429927104934105432e-06
4.452914073135805513e-06
9.905013286129020641e-07
1.300117984582367832e-05
4.143276803783445784e-06
3.553945428535033035e-06
3.689871211245801647e-06
1.016547221407279456e-05
4.806679816015729104e-06
7.890286612435347624e-06
1.418020915655441266e-06
3.719707952480095928e-06
4.696961594485744072e-06
5.369069402666403749e-06
4.839645690956354134e-06
4.984496375202356983e-07
4.798864981258589671e-06
9.164060478604319949e-06
2.802689785331362227e-06
2.280950953963600049e-06
8.037231835636684456e-06
4.994977260320295898e-06
7.104668281058394831e-06
3.220291317986605824e-06
9.555854416986929000e-06
3.893232756772327262e-06
1.198029132891369844e-06
4.078347300788710111e-06
6.596535143808677148e-06
5.011431411280610699e-06
5.026754480137646171e-06
7.387370704178291350e-06
9.036711403455514188e-06
4.182463591987265116e-06
5.797194106344074694e-06
4.815398239656994916e-06
4.479045270518609385e-06
6.861342953491055619e-06
8.941285516039723121e-06
1.581539122690824416e-05
6.520773274554254032e-06
3.152834475823082167e-06
6.397917221856628854e-06
8.783410031547039408e-06
1.048032373926347646e-05
4.392655837219210526e-06
4.329092013686528163e-06
7.253953847348354476e-06
5.231221983506231578e-06
6.619398627744423260e-06
8.227227103891577919e-06
1.346836661912205005e-06
2.057528763899765024e-06
3.990042516458331627e-06
2.981200227558582670e-06
1.380647489002360219e-06
5.495671377825632231e-06
3.930332566814199469e-06
2.662620635660184391e-06
5.798876436012657364e-06
9.310864508589126320e-06
9.474005539385667787e-06
1.177634331401377234e-05
8.757015910639490903e-06
