2.741378509115028760e-06
2.881560029749586621e-05
1.395176730898856120e-04
4.122787487884610577e-04
8.306611275348796918e-04
1.198016192479569707e-03
1.205550030751235653e-03
5.861282875376706445e-04
-6.973681200623645321e-04
-2.177167699728163250e-03
-2.916692743047016086e-03
-2.342360156037064708e-03
-1.065720013594939012e-03
-2.917716579003524374e-04
-3.144556395358168795e-04
-2.449802480975631666e-04
5.092244416266533940e-04
1.158294946142847696e-03
5.363355361182902585e-04
-1.145259263057245508e-03
-2.291059781986677472e-03
-1.715800359692185072e-03
8.325191088273193240e-05
1.592474310624995750e-03
1.865332664612202439e-03
1.247913605340527938e-03
7.173453538871295450e-04
7.844520836427681032e-04
1.158605793087972733e-03
1.339801631577307219e-03
1.289695259244189908e-03
1.389451204111514029e-03
1.736963815608972075e-03
1.694208157974278839e-03
5.689543313743049367e-04
-1.152144678948474393e-03
-1.812621298954617292e-03
-2.968964578039351670e-04
2.488373044086473942e-03
4.317076395324402974e-03
3.962920070040196717e-03
2.461961206799208757e-03
1.714560100760744972e-03
2.239898259523042095e-03
2.909898554173224409e-03
2.499235495571665560e-03
8.744873389414506079e-04
-9.078761061793214722e-04
-1.196591247461578243e-03
8.786491192343193679e-04
3.977810443315544023e-03
5.235034143266507553e-03
3.281610231346583726e-03
4.238716368817869269e-05
-1.340093439333696042e-03
8.976696166553777760e-05
2.435082332168412873e-03
3.224431766622203478e-03
1.762999066914881742e-03
-5.232718641108964012e-04
-1.543212724782577674e-03
-3.187552140303981070e-04
2.218557722547657030e-03
3.957662189835285324e-03
3.470376583200767470e-03
1.426106842812366673e-03
-1.038241531059958320e-04
1.077322921374375907e-04
1.286303255555668783e-03
1.897460815417117844e-03
1.496591236507293808e-03
9.140500611382366362e-04
1.010426576021706711e-03
1.902899466348710296e-03
3.305507466047939453e-03
4.829241869209350072e-03
5.618552824306359030e-03
4.417242386015852139e-03
8.585623688863126607e-04
-3.429192722234629918e-03
-5.855744392088042989e-03
-5.371591988384379762e-03
-3.427315498438418800e-03
-2.106923012275148041e-03
-1.943586212696045857e-03
-2.157108775782900188e-03
-2.272482826167780603e-03
-2.357494801272843991e-03
-2.101870168895884732e-03
-1.061747057688017812e-03
2.216855789812563330e-04
6.563650491123436490e-04
2.570436091090321320e-04
1.797886461167764625e-04
9.413304725539485421e-04
1.682701192542371358e-03
1.464672422427625194e-03
4.328805086123347192e-04
-5.697053302605905711e-04
-8.724172045827832287e-04
-2.804688944614332777e-04
8.726556403990502623e-04
1.801023317499614177e-03
1.873759126227138782e-03
1.283568699457436320e-03
7.912698108988155867e-04
7.508338303856323384e-04
6.862939284724374261e-04
3.702195219912023517e-05
-8.458831061970881974e-04
-8.960530473170600545e-04
3.297665691801968438e-04
1.997442740825112507e-03
2.953761462180848774e-03
2.853018009737484390e-03
2.150871927418822240e-03
1.576257785598701288e-03
1.707544279812461471e-03
2.424548118954305501e-03
2.785528658051037495e-03
2.089890186000682368e-03
9.239693496697860354e-04
4.273440004484192626e-04
6.062287424670441145e-04
1.981285500007753627e-04
-1.490757761205577844e-03
-3.278520076446791217e-03
-3.400088052526252340e-03
-1.869903424710265237e-03
-5.014087748539262012e-04
-3.661037532994581320e-04
-4.570394915971889675e-04
4.667925629273313214e-04
1.909965158554084805e-03
2.574021430750007399e-03
2.347036800017181235e-03
2.099444547073547277e-03
2.056197778961924103e-03
1.722070022147214642e-03
1.251597772159802804e-03
1.534828657460767269e-03
2.615381701513567678e-03
3.172478430239319708e-03
2.249869385733765069e-03
6.537386944706036988e-04
-1.965231894222667060e-04
-1.294569428397968655e-04
3.826048997650276055e-05
7.705237334919295836e-05
4.847373122519033745e-04
1.249965451440481802e-03
1.596820575321738480e-03
1.125436795826618422e-03
4.200940452820372140e-04
2.257340738113887543e-04
4.574430029727950559e-04
3.016831558974007472e-04
-7.956672844298184671e-04
-2.262838667573281465e-03
-2.636793073282559831e-03
-1.126986335920824971e-03
1.003269102967854938e-03
1.416758426001198459e-03
-4.886034005505807652e-04
-2.536783503726229919e-03
-2.217958971600924190e-03
5.540904327832182549e-04
3.862587399460391206e-03
6.110423449971795311e-03
6.913290667736250728e-03
6.335961049689023926e-03
4.560035180018637627e-03
2.496262073722792588e-03
1.775259910484074805e-03
3.266908584625775967e-03
5.782612491262754777e-03
7.024819407691883580e-03
5.917670491750100584e-03
3.471388228882560205e-03
1.480781536201538490e-03
1.011881198328300679e-03
1.946050183905975468e-03
3.196584774862540161e-03
3.435960840830499900e-03
2.310112574769338043e-03
9.085807282372790512e-04
5.373494517514678390e-04
1.208761223481878005e-03
1.892813231939487932e-03
2.121925312362432561e-03
2.632801547214458793e-03
4.116009635069649113e-03
5.822983249291121058e-03
6.011814857714477441e-03
3.789473967810521628e-03
2.766264974787726715e-04
-2.098653092779000865e-03
-1.609306980150647295e-03
1.223532059632134782e-03
4.163461108373175262e-03
5.449655907767007694e-03
5.203991025202765915e-03
4.550882759739152683e-03
3.977067531264102951e-03
3.238287144354703821e-03
2.344410424573674726e-03
1.560358182827848534e-03
6.999888549758489283e-04
-5.251085136638502116e-04
-1.596766595696733375e-03
-1.542104908709844655e-03
-2.562822025097142762e-04
1.074707825835622375e-03
1.028176922965645104e-03
-6.752027498750979607e-04
-2.734995024041742603e-03
-3.248064756671414054e-03
-1.562009642595011110e-03
7.533393233196671599e-04
1.421239377124114411e-03
1.609178773611814862e-04
-9.886988088335824532e-04
-4.833300331225844505e-04
7.154041600199869495e-04
8.743908889916379625e-04
1.459695043686300565e-04
1.208093648886316134e-05
6.816648178844100575e-04
7.744177301964483458e-04
-2.851985598036879590e-04
-1.122895556510553842e-03
-3.970099579501929995e-04
1.166804505333864182e-03
1.707993368727651808e-03
5.835026176828973007e-04
-1.119333424131132258e-03
-2.125014418398623196e-03
-2.232107707774594243e-03
-1.938977088475491838e-03
-1.420862087571857918e-03
-5.199838697140210823e-04
3.889741063875517559e-04
4.001376654850683184e-04
-7.288342495820406171e-04
-2.008676040967964302e-03
-2.308663423606626200e-03
-1.749953749177098235e-03
-1.509363856503217203e-03
-2.160425690061085202e-03
-2.869229485824108423e-03
-2.767690730872493336e-03
-2.408663339771447212e-03
-2.837691973636104724e-03
-3.640501044059180329e-03
-3.167939595587622448e-03
-8.603145059742398721e-04
1.654962762908051025e-03
2.305207002564166417e-03
7.836760352030452004e-04
-1.525752982870293628e-03
-3.259462945570821592e-03
-3.946391933887668201e-03
-3.522975341080659614e-03
-1.955125803237929560e-03
3.920027397453822648e-04
2.637904938876520309e-03
4.136262590443251508e-03
5.040261014750581706e-03
5.745038229217582469e-03
6.142307141426282639e-03
5.917088149694271770e-03
5.279564025433699896e-03
4.795582270656515919e-03
4.502287614087494179e-03
3.732648420112175819e-03
2.128158395279621754e-03
4.960059258659278627e-04
1.552004149493813653e-04
1.469688459733894644e-03
3.370315049275986533e-03
4.262210297415761073e-03
3.227969962414119990e-03
6.805213902293909137e-04
-1.792459456072531673e-03
-2.539405090973299861e-03
-1.290919283825808957e-03
6.178830002730427168e-04
1.707136851630729419e-03
1.725665222947979230e-03
1.361276999761759513e-03
1.061631819034301698e-03
5.962478730289213439e-04
-3.483257492346831076e-04
-1.495445238650436196e-03
-2.130894492968230837e-03
-1.970731413790503470e-03
-1.651853347049405925e-03
-2.049713490391459093e-03
-3.137592585647708092e-03
-3.858119078715096205e-03
-3.207546519665338460e-03
-1.174117184307431859e-03
1.402377833428660944e-03
3.514963076324911090e-03
4.464138346919020728e-03
4.078667887412309664e-03
2.751006231459279978e-03
1.198471479819197393e-03
1.371720100907338792e-04
7.672825393154698772e-05
1.082455036896961794e-03
2.586459375640520145e-03
3.718180448980975411e-03
3.945098139899289383e-03
3.199255804027806814e-03
1.613776257600321208e-03
-2.927793987846251237e-04
-1.369354436608210884e-03
-7.100707143414680678e-04
9.231054725706606826e-04
1.398109243030155272e-03
-3.371441574654618356e-04
-2.592684066168116173e-03
-2.691607831084516251e-03
-3.308652278097150594e-04
1.899613402162933246e-03
1.802405587884715063e-03
2.841873700345123443e-04
-2.021134672121462712e-04
9.438754084723616732e-04
2.023682226216911694e-03
1.611372570438929404e-03
1.199420712446968261e-04
-1.282626134537854200e-03
-1.985200429119168483e-03
-1.745479962577089301e-03
-4.514398957000616318e-04
1.123429533834081548e-03
1.365367990766028390e-03
-2.448925973130428035e-04
-1.939781529658976848e-03
-1.751979344490572649e-03
-4.037312483459757836e-04
-5.136417911495218822e-04
-2.829984197862177395e-03
-4.877469940091263244e-03
-4.047312614845454022e-03
-9.024087357178167982e-04
1.574222434117139276e-03
1.562649780891199082e-03
2.698156338150983508e-04
1.980135887753723452e-05
1.216997202298877780e-03
2.026074269833098244e-03
9.658316061741305334e-04
-1.086614538278872066e-03
-1.932111380247071922e-03
-6.490468155506518792e-04
1.357713727436863759e-03
2.026298427075327521e-03
1.100811143678974034e-03
3.632477602501751239e-04
1.267826002852709497e-03
3.103432548363635468e-03
4.035017922185084489e-03
3.430747160135476544e-03
2.519743024492065130e-03
2.781380822107984950e-03
4.133300362141003291e-03
5.210090114594251309e-03
5.299101122898317029e-03
5.128617517471545026e-03
5.529857245320232012e-03
6.228811743216852541e-03
6.400480339466702202e-03
5.722931816237254547e-03
4.428473810909422555e-03
2.829863063619572888e-03
1.252148214275960493e-03
1.368202626765353163e-04
-2.602880681329456953e-04
-4.349427806900083102e-04
-1.574122570233350187e-03
-4.198765346941163434e-03
-6.882261796603989130e-03
-7.480752464707269428e-03
-5.851729965675528215e-03
-3.930475649988657630e-03
-2.865858135686935419e-03
-1.826827481931452696e-03
-1.484485140837096557e-04
1.129287182627589353e-03
7.890047329726680714e-04
-7.793094926981736573e-04
-2.217757390160526171e-03
-2.704191708678541518e-03
-2.140569786610678656e-03
-7.705919486027282099e-04
6.968103768777240883e-04
1.344184909775737388e-03
9.261599035293574186e-04
-5.527029024502121829e-05
-1.124830809196096688e-03
-1.981341414812660094e-03
-2.216273093288667097e-03
-1.826154636467704033e-03
-1.656337059072598506e-03
-2.344947717701078259e-03
-3.158731045221421785e-03
-2.865933620255697693e-03
-1.526747922229586708e-03
-5.692188982073557394e-04
-1.168981974760369786e-03
-3.020303699888053986e-03
-4.605264316066218742e-03
-4.505503138651442002e-03
-2.647207014207160567e-03
-3.370803648095120446e-04
1.086230720491212793e-03
1.527415618639502756e-03
1.798485537133255249e-03
2.281561925886308254e-03
2.525646520467586878e-03
2.132245974645919154e-03
1.412961586489832298e-03
9.376060484482593013e-04
8.139532592800651552e-04
7.061433237877808803e-04
3.914079877229889853e-04
2.509810438349380137e-05
-1.291686206676867683e-04
-3.906435425074278496e-05
5.186345550963757881e-05
-2.376474035053518629e-04
-1.213227431154097116e-03
-2.720620772984319331e-03
-3.891426456056748702e-03
-3.682024358226173438e-03
-2.043768652857925767e-03
-3.595274957430567419e-04
-1.673206497515137593e-04
-1.336847481522943863e-03
-2.117119172326395113e-03
-1.372588949329285862e-03
-1.967647665978616758e-04
-6.838114645274671541e-04
-3.324234480868125396e-03
-6.172783651524408471e-03
-6.839730917490122533e-03
-5.110691915057042831e-03
-3.045236048175719700e-03
-2.316574969708003195e-03
-2.241171868389285528e-03
-1.133498156129740791e-03
1.037225536230955165e-03
2.461231969014801915e-03
1.856425642572104772e-03
7.133868277272757078e-05
-9.133575682995531990e-04
-8.893191517777632778e-05
1.688576692035569701e-03
2.742784854094006738e-03
2.335469340377413494e-03
1.236590910539079550e-03
6.083859788754863345e-04
7.035026947427073206e-04
8.994066444795699184e-04
7.727289785038607070e-04
7.728078835508758303e-04
1.699075772605412567e-03
3.529594432043987873e-03
4.945955348729248746e-03
4.422268050319136910e-03
1.954144532900028031e-03
-7.011575166696538877e-04
-1.811277520787504076e-03
-1.313229696546073383e-03
-3.428730473697635429e-04
4.043958420495908008e-04
1.203792896705694043e-03
2.374491341915992322e-03
3.593541424484199970e-03
4.372111156085784628e-03
4.648173831493881795e-03
4.544582934746101838e-03
3.932839025585469113e-03
2.682411883545305058e-03
1.210353771833700852e-03
3.375620135036908054e-04
4.421402681204665217e-04
1.014089148060217868e-03
1.203188341623346366e-03
5.697165551196243724e-04
-7.896550389351602185e-04
-2.440377306931873665e-03
-3.698522673322089151e-03
-3.951217201578475190e-03
-3.272897977716066401e-03
-2.492517581804917261e-03
-2.354130131438962863e-03
-2.727614728788192288e-03
-2.829737166961684199e-03
-2.167210710137148014e-03
-1.092267175778432889e-03
-3.225751856894873535e-04
-7.280928787072726968e-05
1.567423851273855740e-05
1.714709857432631214e-04
1.986193046455658577e-04
-3.866930607605433175e-05
-2.664768542624956771e-04
-1.513750813180264566e-04
2.025688210122738751e-04
2.965940203583347689e-04
-2.017308915347766217e-04
-9.830387843314460257e-04
-1.343370372887617899e-03
-1.093641762286853229e-03
-1.064747278285427690e-03
-2.197237395732215114e-03
-3.951887783719232154e-03
-4.258930655774813973e-03
-1.766384464094495656e-03
2.054656296647073416e-03
3.868191919187529467e-03
1.896070748849015049e-03
-2.060635990411239897e-03
-4.443225059991177256e-03
-3.483527398939794545e-03
-6.224603242311129055e-04
1.218377778418605270e-03
4.401599971388470492e-04
-1.824872014882211301e-03
-2.917741861950415728e-03
-1.583713458847129177e-03
5.033305011839695094e-04
9.039619742581445376e-04
-2.478115811384928131e-04
-4.913541187263237471e-04
1.318303923935256698e-03
3.314545486376827173e-03
3.249232728353494172e-03
1.434422661996060267e-03
-4.278963735546202716e-07
3.779437206657959699e-05
6.492741553307798457e-04
5.953861274706636307e-04
-1.193207875206754240e-04
-6.060733412040523668e-04
-4.086669882306606270e-04
1.080798797285353191e-05
-1.362031832950479733e-04
-1.203589652443084719e-03
-2.713625822145813125e-03
-3.445998689502190182e-03
-2.285282423844532413e-03
5.062746946207690238e-04
3.041462072243640308e-03
3.405825821047916632e-03
1.623489121505469627e-03
-3.341327941056260967e-04
-7.132948116201897346e-04
1.880439983626469363e-04
7.550790424143640931e-04
2.109339298289406852e-04
-7.068878036186742198e-04
-9.581795540961931656e-04
-3.015162704515852174e-04
7.317117634693350763e-04
1.442776837014308122e-03
1.610805135706724379e-03
1.801172618691863122e-03
2.805796362703843246e-03
4.388431343969406706e-03
4.846945372336614738e-03
2.692389031199264853e-03
-9.962716128700214047e-04
-2.920804611040227032e-03
-1.146238658248087492e-03
2.309353643565214241e-03
3.503224255687045416e-03
8.995347848384860952e-04
-3.233803923184975018e-03
-5.638850892739973031e-03
-5.381196821628735083e-03
-4.038938813056862018e-03
-3.226358954411671573e-03
-2.845848216687139800e-03
-2.038929919992550979e-03
-9.455748297594384830e-04
-4.398196579632118394e-04
-5.032001626346535540e-04
-1.499264742465598161e-04
9.775205465618521522e-04
2.087846979092504961e-03
2.581297183199267146e-03
2.890732469321033449e-03
3.469995661707949309e-03
3.831142620288555383e-03
3.388044115245892902e-03
2.589130621411612088e-03
2.321736906912818307e-03
2.647649873545892055e-03
2.858394742892108719e-03
2.470303708930081821e-03
1.736243861733601304e-03
1.376943084360531411e-03
1.855710786378325303e-03
2.697163806504904345e-03
2.771121985937340538e-03
1.578732778102014903e-03
-1.445199566426144796e-04
-1.462788948613017370e-03
-2.248188097313799302e-03
-2.656348577532824731e-03
-2.422565021441281698e-03
-1.536956563803865486e-03
-9.033825634305926462e-04
-1.248563141359596181e-03
-1.871133968649554748e-03
-1.578377032234994787e-03
-5.319019223969028787e-04
-8.573402875440365965e-05
-9.297061631244089245e-04
-2.320646545643650915e-03
-3.148550516815182623e-03
-3.032952772944621719e-03
-2.287660221492240735e-03
-1.332259725744420640e-03
-3.874023446628616345e-04
3.581558630287579167e-04
5.398443916927239813e-04
-2.480710710967197019e-05
-6.601367954907792291e-04
-9.430596572505676621e-05
1.942932961603304007e-03
3.658780595301615660e-03
2.777154449918601067e-03
-4.443515463436625325e-04
-2.797271171289126591e-03
-1.727103251135519730e-03
1.328649377364204010e-03
2.640581092794234887e-03
1.039162609870484351e-03
-6.422685516885540905e-04
4.221237246059005065e-04
3.129079903806308762e-03
3.928172154621790806e-03
1.403568406411209810e-03
-2.261058381996154144e-03
-4.206758266250825752e-03
-3.763425361358716751e-03
-2.230960976908628792e-03
-1.139110064026610872e-03
-1.142433736616839564e-03
-1.691687363872733905e-03
-1.428810558483372805e-03
4.560338817733268295e-04
3.112113512690743277e-03
4.750224565770945657e-03
4.427864109507811778e-03
2.758259053560546941e-03
1.092643534152116765e-03
4.217783421037520509e-04
9.050882291865082778e-04
1.960134436692062814e-03
2.620423690082731173e-03
2.170516273956660681e-03
8.572709815880613041e-04
-1.890795558283678529e-04
-1.741896123539602586e-04
3.127356017308643207e-04
-3.915458528377582922e-05
-1.468376475627933275e-03
-2.570852876932907139e-03
-1.953605314571702639e-03
-4.094213946373003593e-05
1.356202198736523911e-03
1.052118982709196026e-03
-4.731770582566191194e-04
-1.968403039431917013e-03
-2.763031277201088032e-03
-2.927297519303164852e-03
-2.577074516502988327e-03
-1.718477737304101175e-03
-6.781754984264282138e-04
-9.079681003766224782e-05
-3.318786309807859273e-04
-1.175854448149494993e-03
-2.012972316174330666e-03
-2.238523672895308125e-03
-1.465782359616315351e-03
2.592997186957002277e-04
2.248991932943306040e-03
3.577375493323950960e-03
3.931101973058872406e-03
3.683127056612412256e-03
3.125604973924555295e-03
2.253471532455941263e-03
1.317051786450334615e-03
8.603929407328042350e-04
1.012994553902375706e-03
1.264876444335215604e-03
1.209768583937290403e-03
1.220892568623103362e-03
2.010087628153872045e-03
3.425333825276403229e-03
4.098391778170589438e-03
2.896519181130093740e-03
6.026137889703646246e-04
-6.855368947052477594e-04
-4.196094900357951455e-05
1.174512014319404989e-03
1.167169179715929006e-03
8.065129977326632041e-05
-2.794529741322899358e-04
1.002458101064934107e-03
2.617984078858227523e-03
2.711140173434291572e-03
1.253436247771944805e-03
-2.690948041250405842e-05
6.370149713067949603e-05
8.026467203153664484e-04
7.723798891546135564e-04
-1.984413093131934865e-04
-8.348186532207595763e-04
1.494641790161920381e-04
2.677581952699650998e-03
5.126084290054083552e-03
5.481461540077619751e-03
3.081450950259355913e-03
-5.763169941446385754e-04
-2.921256434452828860e-03
-2.468511198263307303e-03
-1.210684025505232974e-04
1.733550752025214605e-03
1.695622038466771580e-03
7.131203602451802875e-04
5.059040145605808768e-04
1.109334362126340214e-03
1.047843471202577949e-03
-1.752021763111429660e-04
-1.118751326540210530e-03
-4.613936521582487284e-04
1.113743231611972161e-03
2.004993314007266856e-03
1.799658133469873161e-03
1.172290509898097147e-03
4.118440761197510961e-04
-5.290264102134531986e-04
-9.753812175069743367e-04
-7.279230419421475664e-05
1.674224951054278931e-03
2.684589951829590218e-03
2.200035713106697315e-03
9.297463470543423621e-04
-1.488598042198826295e-04
-5.645303583884363771e-04
2.418309575612340341e-05
1.572836650213005599e-03
2.708008741942135363e-03
1.524559798886868751e-03
-1.913093765420655719e-03
-4.935246746847572405e-03
-4.954773029507059980e-03
-2.242151370241333638e-03
4.529648939069594489e-04
6.723389668346147277e-04
-1.575545162121257852e-03
-4.089239353958245247e-03
-4.682504451497359992e-03
-3.054108715069493024e-03
-5.410850953740674362e-04
1.483131551225522421e-03
2.574795543570541825e-03
3.026761430162229830e-03
3.271693066527271970e-03
3.366757462235470556e-03
2.916011083724020375e-03
1.676407138905349229e-03
8.464854032420607928e-05
-1.153177312621026093e-03
-1.769709119735558443e-03
-1.885912253859038179e-03
-1.516966355261591863e-03
-5.907595660975008527e-04
5.706302324542875115e-04
1.198397774306133885e-03
7.498527293934436093e-04
-4.229895419551887056e-04
-1.212069878732747671e-03
-7.754713585828942966e-04
4.392238542760378006e-04
1.070009794933534601e-03
6.304971230455474291e-04
3.381776354156646358e-04
1.322856651476305920e-03
2.580688000059901555e-03
2.072495232951274743e-03
-2.238255319885673264e-04
-1.837348879408878984e-03
-9.243742272477845513e-04
1.250155603113660332e-03
1.945348980656433618e-03
4.872297259404795430e-04
-1.115515148018522001e-03
-1.131102934174012167e-03
-3.020053336713229321e-04
-4.635071827147579210e-04
-1.985320845180689377e-03
-3.428097464913568756e-03
-3.273271549385215178e-03
-1.374228048237585709e-03
1.086889567835277667e-03
2.634288812919880970e-03
2.551073160305090438e-03
1.219890263566715278e-03
-4.153382079260749715e-04
-1.711800903783788994e-03
-2.707407914387191614e-03
-3.589480104429713502e-03
-3.826355110731117452e-03
-2.454696460409444211e-03
3.622734484333274508e-04
2.931590424179584230e-03
3.910610201744576034e-03
3.695663025716478499e-03
3.217382780109689921e-03
2.465816287240442817e-03
1.191935940198379958e-03
1.163125153692357657e-04
2.886184436445188338e-04
1.689612011602512846e-03
3.293868827953813725e-03
4.310021946147895959e-03
4.828625305059224861e-03
5.228607241840927192e-03
5.228848438211704253e-03
4.041212964346118340e-03
1.808334615421089940e-03
7.342393650996531214e-05
-2.079128081319537549e-04
-2.626085583808877551e-04
-1.607856398385484279e-03
-3.299273598355816420e-03
-2.935840493799842053e-03
-2.671310442530332456e-04
1.994594664834133634e-03
1.547839489523172938e-03
-5.931762203779183344e-04
-1.576136643378624582e-03
-3.900432245130027722e-04
1.201642728033284211e-03
1.442154846357627173e-03
1.005110179295820192e-03
1.660716476182645847e-03
3.235274672887930494e-03
3.468234135153787628e-03
1.209491269821101264e-03
-1.572363296576608990e-03
-2.071234577943328100e-03
-3.497964567333725137e-04
6.017099519884163425e-04
-1.284562307916811566e-03
-4.480737444488886931e-03
-5.812242100180563947e-03
-4.178080372956574293e-03
-1.278131037829509332e-03
7.866481797891499653e-04
1.433894370788229124e-03
1.269333618933266060e-03
9.505299765607932560e-04
7.569629873796272996e-04
7.304950744684015566e-04
7.510896106846826504e-04
5.368689966500611154e-04
-6.456170547398641939e-05
-6.378198943110521607e-04
-4.532666275678941020e-04
4.714751771190809661e-04
1.016536199420949331e-03
2.429985381125467298e-04
-1.376393189567012105e-03
-2.591372163264031841e-03
-2.796320742011735618e-03
-2.256299030019964184e-03
-1.443217801358145317e-03
-8.597439187579727481e-04
-1.092772557180283349e-03
-2.179678228160945863e-03
-3.085612144133916771e-03
-2.644600384949950377e-03
-1.102997502488523105e-03
-5.897687834058743602e-05
-6.205807326510688528e-04
-2.036591591279144492e-03
-2.514049721603795785e-03
-1.339130334572073179e-03
2.549878330816849389e-04
7.191696221451240184e-04
2.139004952229704010e-04
1.556372271046398365e-04
1.044605525053016138e-03
1.857161227381030639e-03
1.668518793297064234e-03
9.036012476165341265e-04
6.391666423776825538e-04
1.297781124394367007e-03
2.352472892618139109e-03
2.905912405438656684e-03
2.384548596301485843e-03
1.010915917481974759e-03
-2.948770214185680123e-04
-6.505598800394175223e-04
7.385725688768016248e-05
1.115304843697730725e-03
1.439242171043578038e-03
9.510033378219682771e-04
8.115550507050013325e-04
1.712683621789618492e-03
2.479977788783679395e-03
1.839944752014623791e-03
9.360887417115257075e-04
2.105029720183007429e-03
5.189788802258540716e-03
7.025463250878407478e-03
5.336262017873840899e-03
1.774016651241840624e-03
-9.173478235849186039e-05
9.462060733275530142e-04
2.782189859641574520e-03
3.078478471719506716e-03
1.935917876429655952e-03
1.133721219632667599e-03
1.724425620074544361e-03
3.071306319121768283e-03
3.794552206680849599e-03
3.146204825754772821e-03
1.636849456550201840e-03
5.187703784183975240e-04
5.504389181633371261e-04
1.364693288053255450e-03
2.228363692841812699e-03
3.017265368814895168e-03
3.796962576234298205e-03
3.793417747804939816e-03
2.093954334807950762e-03
-3.394981956286726387e-04
-9.389698563451702321e-04
1.158468151625265032e-03
3.448519009693136201e-03
3.121384776945365733e-03
6.644482716778297472e-04
-1.242017780663514726e-03
-1.670779226620205515e-03
-2.456430459534538358e-03
-5.260252182165989741e-03
-9.000962035558552135e-03
-1.072980804067805508e-02
-8.674483592790150494e-03
-4.214985509015662171e-03
-6.873751281033324643e-04
1.040052704170455855e-05
-7.456944076517739699e-04
-4.342095939709665576e-04
1.174205957012409204e-03
1.910396716978150864e-03
4.847047508483416992e-04
-1.549860708109385924e-03
-1.766943675262022499e-03
1.440515637431206736e-04
2.229129721909178536e-03
2.716913435342340789e-03
1.813122604586069704e-03
9.863115835501714244e-04
1.088999439532906165e-03
1.657902728804515379e-03
1.851460109362581142e-03
1.513062415141854834e-03
1.122906768417566460e-03
1.037098997399979201e-03
1.116828071579348833e-03
1.057238403658083362e-03
8.099454515955475898e-04
5.718017383588094599e-04
4.884483064478843716e-04
5.111976382319096150e-04
5.149332248145881401e-04
4.061427944689994466e-04
8.045638160168109817e-05
-4.735547760442280650e-04
-7.982491412436736652e-04
-3.576271916977280681e-05
2.013747712916146883e-03
4.042431456781903076e-03
4.290931980107233652e-03
2.668814014329755520e-03
1.039072122256378457e-03
9.489189787998090911e-04
1.711045279576698178e-03
1.437427866857821004e-03
-2.600387688600563300e-04
-1.490761803677801561e-03
-5.040818426759922184e-04
1.738273367063907946e-03
2.500876387023270170e-03
7.400207330503678904e-04
-1.601258220994072586e-03
-2.241973803732982915e-03
-1.435640935453283591e-03
-1.254173110034201939e-03
-2.603438537499782549e-03
-4.157095392274407809e-03
-4.347576896843006675e-03
-3.379867785646782814e-03
-2.685970363952488570e-03
-2.982146991978050672e-03
-3.563903888324300613e-03
-3.312486736061652937e-03
-1.865325879615197229e-03
1.185222720077065754e-04
1.445219117369534638e-03
1.238521408985237627e-03
-1.938812625297889737e-04
-1.265600867495540001e-03
-4.886519230826598913e-04
1.669467462910128631e-03
2.948651825797787840e-03
1.947605032321979551e-03
-3.629526315788777829e-05
-5.848721463712320363e-04
1.060828252519207789e-03
3.629108448882299633e-03
5.574268391970023558e-03
6.179080118738767072e-03
5.388021224110087909e-03
3.783011698179333544e-03
2.687623682738570201e-03
3.232806973145263985e-03
5.093610099817397555e-03
6.734401673168158471e-03
6.872094238703486263e-03
5.309655392781334297e-03
2.715245475444159982e-03
2.425603499032870174e-04
-8.450794149308523632e-04
4.602884252022360458e-06
1.888293804556564256e-03
2.940959435443568290e-03
1.941660197426692182e-03
-4.894753224139890193e-04
-2.244124679757601021e-03
-1.539475149255814957e-03
1.165254741810745542e-03
3.238391351424653453e-03
2.334271781645264748e-03
-1.268407535214492775e-03
-4.931903781250591631e-03
-6.140977701553948336e-03
-4.739627925094461701e-03
-2.754969993199775802e-03
-2.020683983451751573e-03
-2.405442391687416699e-03
-2.693250519462951718e-03
-2.461156662142149638e-03
-2.279892722282250445e-03
-2.603883929223021858e-03
-3.304550959238263756e-03
-3.954075770952174967e-03
-3.950380497721082095e-03
-2.713148934913044413e-03
-3.283312198152217544e-04
2.235926432943245983e-03
3.984278651402898587e-03
4.716558884997599545e-03
4.722410709014560407e-03
4.082446992535071484e-03
2.620994141052699657e-03
3.326998096031159326e-04
-2.226689122466363017e-03
-3.902255769487473179e-03
-3.608141705134382780e-03
-1.360901397660620009e-03
1.467082316623725263e-03
3.163132462025734434e-03
3.013741593342820959e-03
1.654146879961084469e-03
2.726243169540426125e-04
-3.409935281847460958e-04
-2.376149166163314262e-04
-2.399981530435296468e-04
-1.200651552295632900e-03
-2.902551025738660511e-03
-3.991422997896949647e-03
-3.402813822569836222e-03
-1.586882661533029924e-03
3.694167145248672130e-05
6.652302174839266457e-04
7.686963488597214119e-04
1.149681150652286056e-03
1.846631451232872085e-03
2.373307544569427160e-03
2.587700869276137686e-03
2.630794978216754228e-03
2.326200635909351274e-03
1.520967320769086662e-03
9.410220454087988087e-04
1.778230548071511570e-03
4.098110650261857675e-03
6.252172427990946788e-03
6.358290372540353549e-03
4.198343206103032424e-03
1.390948476619292351e-03
-2.397693505665876687e-04
-3.300580647284337031e-04
-5.166472954551578050e-07
-3.046020095120351569e-04
-9.605703904816040826e-04
-9.248427646988740397e-04
-3.351767693325006636e-05
5.356567417336153061e-04
-2.149335594081801487e-04
-1.634873685806637403e-03
-2.289865796484503654e-03
-1.998991059705352950e-03
-1.911692203940265492e-03
-2.542209362094932298e-03
-2.838514646206310131e-03
-1.671202729867089396e-03
3.394937785104386882e-04
1.155578347027366682e-03
-3.176510945641624478e-04
-2.629465042444171109e-03
-3.298678831029018370e-03
-1.911967102561680162e-03
-6.674117121953682423e-04
-1.361199289605754311e-03
-2.868723305025019672e-03
-2.624764310375692512e-03
-5.810780529206236757e-05
2.665338265733336546e-03
3.427438720988822130e-03
2.550017496740493699e-03
1.730738886521300274e-03
1.534894667137758203e-03
1.158878278729677264e-03
2.459025775600141286e-04
-4.180854355764260623e-04
-1.701986157768663589e-04
5.633029082374065152e-04
1.013086995221956776e-03
1.223071932305393097e-03
1.885248147303406844e-03
3.162051330104170485e-03
4.266551747856386564e-03
4.431932883026977466e-03
3.820604636432074156e-03
3.043247340091138637e-03
2.169170869462289271e-03
9.243564055263558607e-04
-2.932582797008670850e-04
-5.628540959841202848e-04
1.626975870809981050e-04
7.420818280781038209e-04
4.218136667516556178e-04
-2.812359505544152771e-05
6.034954374211402243e-04
2.272335119602167039e-03
3.846377030964508517e-03
4.694243299194321081e-03
5.097752420539472702e-03
5.006136570024234851e-03
3.562133588260616747e-03
5.099715151265683680e-04
-2.735196210772574375e-03
-4.273278288967984236e-03
-3.737638543026227875e-03
-2.560970710507289375e-03
-2.326681973774216792e-03
-3.324861687307891292e-03
-4.632091691514590888e-03
-5.040598716180144136e-03
-4.004068441808652547e-03
-2.326168550483933162e-03
-1.743570297533395333e-03
-3.091685673055843096e-03
-5.125299585889440956e-03
-5.911517192249473966e-03
-5.113880110975029848e-03
-4.114081984871521477e-03
-4.046996099459651205e-03
-4.501677239026973497e-03
-4.287911148408716025e-03
-2.938449315353613978e-03
-1.063741075441530402e-03
6.708830194818281994e-04
2.318295021232239222e-03
3.848292979630092443e-03
4.221241350812092626e-03
2.613901939132695293e-03
3.331089488775523604e-04
-1.232354772671389177e-04
1.882896641395677027e-03
4.311853473681823840e-03
4.895748212393292303e-03
3.461630250706651014e-03
1.643088581991309109e-03
9.588926053872553340e-04
1.483779363901416770e-03
2.132711068016611682e-03
1.897378101941345901e-03
7.271222624589951519e-04
-6.185385954577768018e-04
-1.393582431507981887e-03
-1.438667028971625256e-03
-9.353478240540344293e-04
1.597813440239270830e-04
2.044788481068583047e-03
4.291622141806701943e-03
5.571487673655956506e-03
4.955402760478748794e-03
3.477126669818157191e-03
3.246415820856285179e-03
4.565117601541711020e-03
5.176704370922690854e-03
3.261206442716490204e-03
1.221081613906853792e-04
-1.322717028561000083e-03
-1.019629737462794477e-04
2.032185358296720139e-03
3.027363925246611895e-03
2.348007929424988840e-03
5.058130251394336429e-04
-1.657542573582574796e-03
-2.929075793814064563e-03
-2.325264266269014279e-03
-2.655891477937922813e-04
1.639274008621138118e-03
2.176872715738462256e-03
1.343542168106614436e-03
-2.722881868106202287e-04
-2.034594103764632116e-03
-3.052345485479519577e-03
-2.427682274325832033e-03
-4.916024378954809981e-04
7.915604407701096103e-04
-2.665802635307252220e-04
-2.873029430527275756e-03
-4.475303362689488605e-03
-3.787061852737990449e-03
-2.132483092536853302e-03
-1.507642250696501762e-03
-2.214613777785924033e-03
-2.994765767302939863e-03
-2.866027933895049559e-03
-2.045021388363839950e-03
-1.351719204792152778e-03
-1.453589586948102457e-03
-2.470330785534363433e-03
-3.604973127555835717e-03
-3.489569474807057477e-03
-1.655679095782605333e-03
6.368991486766521683e-04
1.672567441560558104e-03
1.125319309197793730e-03
1.556582104049669202e-04
-1.020184677490244070e-04
3.583117561017367140e-04
8.042357176753761995e-04
7.478559333149503502e-04
2.520880595639460905e-04
-3.845006213649493701e-04
-8.234777746096348747e-04
-8.475070809127707890e-04
-7.254541261533522471e-04
-1.026276139014575903e-03
-1.748899685116000764e-03
-2.253669563199119097e-03
-2.329698647219573780e-03
-2.520092600279498236e-03
-3.029057136291094226e-03
-3.052309221055858959e-03
-1.726979395765340436e-03
5.405455866547888982e-04
2.191761935321046711e-03
2.216513581679562840e-03
1.455949887515843155e-03
1.551248567851748993e-03
2.694203090537812539e-03
3.423648240266250094e-03
2.822063217431482630e-03
1.807211984200866395e-03
1.788937868547114214e-03
2.907902062316709488e-03
4.060071784139535588e-03
4.050710485412963198e-03
2.538144148373875243e-03
4.640091623533210900e-04
-4.905645028180521429e-04
4.067206307263325537e-04
1.931092752879038765e-03
2.271034939054928769e-03
1.162085213498432025e-03
-1.154593297287774783e-04
-7.248104295667049009e-04
-1.326751171935900125e-03
-2.729014145380622564e-03
-4.154081555137248243e-03
-3.874022746280040772e-03
-1.720978831292117352e-03
4.063996962868055799e-05
-7.653069831693125585e-04
-3.321936415105617140e-03
-4.515533249579848502e-03
-2.534980932065490807e-03
1.116220651290027567e-03
3.456770454613530916e-03
3.220528409727310085e-03
1.736721427385559983e-03
9.721969835021040170e-04
1.409125902150566061e-03
2.067263285458196317e-03
2.064680139235728577e-03
1.496714694176441924e-03
7.957532670407687931e-04
-5.111310864177524664e-05
-1.038632907645638389e-03
-1.271753939948968952e-03
4.445278163802408151e-04
3.856529716457180509e-03
6.837131116828394813e-03
7.323582307585595370e-03
5.438318014702848459e-03
3.156238679085088088e-03
1.952232788068752542e-03
1.391425470665560949e-03
2.542862677545266103e-04
-1.450915954188516498e-03
-2.213911927136124648e-03
-9.265264771549071646e-04
1.421404049114746585e-03
2.641231367957551975e-03
1.851275184582646359e-03
2.812433428271639323e-04
-5.780636729600188446e-04
-7.508274244840788814e-04
-1.213056248732867753e-03
-2.282934126442183898e-03
-3.282433781512858733e-03
-3.451571778835175672e-03
-2.777772335802283950e-03
-2.167260567396349803e-03
-2.716022392244926871e-03
-4.299592220160993253e-03
-5.254101485056230161e-03
-4.235186073275199435e-03
-1.979841508211371403e-03
-4.295745728832276768e-04
-5.092190444079722992e-04
-1.437251075895300961e-03
-1.904710203438985273e-03
-1.436837950555983371e-03
-7.022737352181207624e-04
-6.595616809302546962e-04
-1.339213380297197935e-03
-1.589534281030443143e-03
-3.725663257732099594e-04
1.752639615335724928e-03
2.984724027725728628e-03
2.258520036737709201e-03
4.373805994706583518e-04
-6.178166116279974708e-04
6.809875933702554682e-05
1.656179671366348610e-03
2.355353143260044586e-03
1.306568879887624272e-03
-4.538672762002202979e-04
-1.218156604059988414e-03
-6.142751113911515751e-04
3.121084427020004524e-04
8.944794536442806678e-04
1.489127929673546725e-03
1.961320101732268780e-03
9.804985238478830436e-04
-2.036901366096692707e-03
-5.250822690587762798e-03
-6.117852863770011258e-03
-4.462713459721330544e-03
-2.585929960595212147e-03
-2.338920555560405814e-03
-3.142230159592964908e-03
-3.125245720755938025e-03
-1.478434097227659342e-03
7.106388398090269891e-04
1.736507003718420301e-03
1.201471951452696540e-03
4.559438844346663409e-04
9.425923995370231664e-04
2.500962326609536095e-03
3.683648016129801792e-03
3.265112042298913206e-03
1.154845393324823713e-03
-1.450613163815779854e-03
-2.573054399564348154e-03
-1.071881267373692419e-03
1.845891051634509280e-03
3.577263177663281453e-03
2.894074418105400948e-03
1.013112224664445725e-03
-1.881109424858967401e-04
-8.657049941132360839e-05
6.917401200702772215e-04
1.148573820735685532e-03
4.569349116518172283e-04
-1.417988891227872552e-03
-3.161637776591609723e-03
-2.976368296855434834e-03
-6.840001130774785165e-04
1.562682965196041931e-03
1.514487545558935826e-03
-4.178019083197422089e-04
-1.580911800469524380e-03
-3.399495078826012440e-04
2.105158780685069311e-03
3.459728586064335105e-03
2.818029682809570276e-03
1.008466156549604189e-03
-4.881772100750031949e-04
-5.399061408927828369e-04
7.839525463572099943e-04
1.945597134206515557e-03
1.230517591215517931e-03
-1.314614165010189947e-03
-3.707408176851904359e-03
-4.076135753247876227e-03
-2.461264988342665421e-03
-3.783056570308742641e-04
7.645984460911288937e-04
4.663046808445138643e-04
-7.829563311230830708e-04
-1.567290973617704300e-03
-5.349655952386131582e-04
1.777412572111596294e-03
2.762064545059147828e-03
5.134283452834286030e-04
-3.487138417606490057e-03
-5.618265514237558676e-03
-4.068440214104890491e-03
-4.979346648420547887e-04
2.316395607899930219e-03
3.380864686381610754e-03
3.569263725378007696e-03
3.667940576073532803e-03
3.369536943110842692e-03
2.287797823963709162e-03
1.122161545651157496e-03
1.151553484403474619e-03
2.792507135256257211e-03
5.067348000861194093e-03
6.415282875682501787e-03
5.816309430993481765e-03
3.269807080745723484e-03
-3.575572598596688228e-04
-3.673090658688157352e-03
-5.387531661894756109e-03
-5.306421146864749930e-03
-4.623612084733938650e-03
-4.657623957984908906e-03
-5.386488519299710044e-03
-5.734697772463566608e-03
-5.044012674124822432e-03
-3.583777918710583099e-03
-1.864408106185805065e-03
-3.223167181945545091e-04
3.278609486418280366e-04
-6.929815093491494037e-04
-3.185695488267374122e-03
-5.442747553001061125e-03
-5.369132774087777803e-03
-2.523412167882972332e-03
1.159051876013038503e-03
3.121964495536842105e-03
2.653867612690300262e-03
1.297664053904355394e-03
9.535906283561815765e-04
2.130575797310619440e-03
4.085078867856164336e-03
5.851197113440565790e-03
6.607012794915678201e-03
5.719654704459156171e-03
3.391130999458316468e-03
1.119451354289774858e-03
6.424713823676527673e-04
2.095132940903527818e-03
3.646077553468527691e-03
3.382766336409022759e-03
1.419870783650737994e-03
-2.996896846130642743e-04
-2.520294253771935612e-04
1.196149920560376275e-03
2.585936941772769629e-03
2.870640931420760655e-03
1.944137763322895205e-03
4.841116068444865136e-04
-4.750503187064356730e-04
-5.415599346793725788e-04
-5.917606747324784255e-04
-1.604546770484209517e-03
-3.051759812656595471e-03
-3.465258206549395349e-03
-2.494665812085332217e-03
-1.327584036356791852e-03
-9.527939421911080752e-04
-1.022652171402261938e-03
-8.296365084220177263e-04
-4.476564020345442712e-04
-1.925646908568552792e-04
1.726420604419974135e-04
7.102131174576750000e-04
5.562513003187080640e-04
-8.269484383796656688e-04
-2.132173474655881668e-03
-1.428176598219973959e-03
1.122129237778587757e-03
3.212138980227725611e-03
3.448165065551765402e-03
3.144964166283409877e-03
4.178674293327162316e-03
5.914502776414883208e-03
5.596877759756292703e-03
1.874994321898222540e-03
-3.045541226251712377e-03
-5.450061187836994191e-03
-4.070217206022496044e-03
-1.320065813616001869e-03
-3.027833580484594160e-04
-1.225628027367869129e-03
-1.774339009273784859e-03
-8.010363584544078451e-04
3.963383922588438815e-06
-1.148327986916139725e-03
-3.265012744704494981e-03
-3.973611715564859259e-03
-2.875581186974383776e-03
-1.677397823453136800e-03
-1.366342587181863235e-03
-1.074924084773683404e-03
7.400355035391570921e-05
1.376127655441514424e-03
1.375939823775882212e-03
-2.100882534907062751e-04
-1.818020975186243442e-03
-1.503939507463216991e-03
7.390766075338088201e-04
2.430125720257142550e-03
1.053055532142071950e-03
-2.837715588761746590e-03
-5.816203056078789874e-03
-5.421338696693002272e-03
-2.962944174347441773e-03
-1.622750373870528780e-03
-2.418127987902919142e-03
-3.257984666996542426e-03
-2.010442452475385156e-03
5.502914369573347429e-04
1.682688982405468282e-03
2.768613823685864370e-04
-1.614014441049478610e-03
-1.394283827185686117e-03
7.493556069792144461e-04
2.146743769538708366e-03
1.011996538820128088e-03
-1.543171978930884137e-03
-3.138982284221196288e-03
-2.824575492893678305e-03
-1.431839107530417585e-03
-1.894041202345306697e-06
1.054725919617822277e-03
1.550210378235245857e-03
1.286801027476701430e-03
3.028992721913774302e-04
-1.122225353214323807e-03
-2.565455434942688108e-03
-3.267177249755601632e-03
-2.339134322347034573e-03
1.665403611068801983e-04
2.629850051703712908e-03
2.975896285745658915e-03
5.114523586329279559e-04
-3.506473493915957581e-03
-6.866096745517523935e-03
-7.803296568716007811e-03
-5.956152957500084576e-03
-2.561222979450629260e-03
2.882872636009441592e-04
1.055269527166233148e-03
-1.113435405188249782e-04
-1.638244037030809263e-03
-2.219555630618328182e-03
-2.148156174293943451e-03
-2.551035653584781022e-03
-3.600561248905610485e-03
-4.232708161859156243e-03
-3.526374502957672127e-03
-1.672503851761957937e-03
3.826816020957771571e-04
1.723846280195836817e-03
1.965667197334934786e-03
1.442994482659393316e-03
1.003798277794927876e-03
1.420071492004632095e-03
2.822467498364704917e-03
4.562592108289397277e-03
5.725352318685540155e-03
5.961678957379330096e-03
5.548514258247775645e-03
4.540959384247243193e-03
2.690147470813461505e-03
5.935148278837901236e-04
-1.318975754464466659e-04
1.290407338487056885e-03
3.389161081734784215e-03
3.881055251004271629e-03
2.378912300313897402e-03
7.969008041007058507e-04
9.045908445406957701e-04
2.307055921245482373e-03
3.312383121541062712e-03
3.129339178580403582e-03
2.428290183991578099e-03
1.987464335579555881e-03
1.724890558882608135e-03
1.384452797228299861e-03
1.369534019111606120e-03
2.135307061225925722e-03
3.247637150896141769e-03
3.950993893511753167e-03
4.400523937646524594e-03
5.307012583677488994e-03
6.323665521919322879e-03
5.857701250005116315e-03
3.009800303985136951e-03
-9.794087016174470549e-04
-3.842752650245648618e-03
-4.581864962481118839e-03
-4.280815867568951022e-03
-4.772188639841162816e-03
-6.743041636803562972e-03
-9.209159772249557452e-03
-1.070247696407989647e-02
-1.065710588367067141e-02
-9.611487442714852780e-03
-8.514198735266341467e-03
-7.993914951295682386e-03
-7.889984459438512468e-03
-7.356507050203857541e-03
-5.770227574442676755e-03
-3.521996992569719886e-03
-1.561330482424556562e-03
-3.970241153792422378e-04
-7.489839988323438152e-05
-7.462186073193765277e-04
-2.295642402442084513e-03
-3.436331534991000219e-03
-2.300238793328751672e-03
1.349848138935753374e-03
5.071240120885037519e-03
5.919716142918064750e-03
3.669457994838388852e-03
9.432889385380178364e-04
6.355852247569239357e-05
8.126064200523700626e-04
1.516894318281138392e-03
1.265803630373140646e-03
5.071004304622584152e-04
-3.723109211883951681e-05
-4.850397919590336603e-04
-1.533566083660122762e-03
-3.118574823788296951e-03
-3.968550787496400931e-03
-3.037347611649570973e-03
-9.653218953676106703e-04
5.599082781620893026e-04
6.854191834845491061e-04
5.639907286088052330e-05
-1.942119262245672732e-04
3.757604849404604487e-04
1.193973886019027326e-03
1.325772592191458866e-03
6.536826085185960204e-04
2.093703474738756913e-04
8.618630715362367170e-04
2.024096802315931976e-03
2.363841368015689309e-03
1.546902116697398445e-03
4.887668630658993088e-04
-6.892669034463833077e-05
-3.886150164375242258e-04
-9.008834962444492878e-04
-1.405228408842874388e-03
-1.688779654703661572e-03
-2.110841093485478492e-03
-2.697948327204297437e-03
-2.391676304150957590e-03
-3.390865098998025015e-04
2.516368516200295780e-03
4.363557852380388173e-03
4.889118151746984359e-03
5.474910859965687569e-03
6.919210543265216090e-03
8.217177263865189235e-03
8.124025363301109678e-03
6.900456790173829270e-03
5.671362500132037451e-03
4.711455826257283756e-03
3.417493454841614205e-03
1.774770038895563586e-03
7.121502396829654680e-04
6.848157814892788563e-04
8.283797233545364984e-04
1.123081938039486205e-04
-1.295377130352926053e-03
-2.370218379842513670e-03
-2.450930391641582048e-03
-1.734226170514776948e-03
-1.021734290848349798e-03
-1.185353650798092167e-03
-2.442153311730872745e-03
-4.091059203008674296e-03
-5.251247477650989627e-03
-5.638467027367132303e-03
-5.327184819300534967e-03
-4.214890645843039421e-03
-2.310119681232007238e-03
-3.244063131441048955e-04
6.502539311913505329e-04
2.278197056759311912e-04
-7.866886688113043126e-04
-1.297373699612022063e-03
-1.212879946457112376e-03
-1.320901400557920793e-03
-1.814057094494491004e-03
-1.723527149074384869e-03
-1.747493843585934859e-04
2.329433956122588332e-03
4.181687289880317571e-03
4.121553106795256688e-03
2.483171735061071635e-03
9.298012559749867147e-04
6.831197684645921343e-04
1.218900713966237235e-03
1.213522085316668308e-03
5.453314292103044782e-04
3.295731065057118533e-04
7.422616963510157229e-04
2.398612437369785841e-04
-2.049397738004482290e-03
-4.387984198479828214e-03
-4.327181724364726444e-03
-1.938856259172120917e-03
1.224350373470878273e-04
-2.709004624471825153e-04
-2.423595623426805148e-03
-3.938964500198267014e-03
-3.595132960934974836e-03
-2.497964112412137845e-03
-2.538774867135225755e-03
-4.351807322190969288e-03
-6.902976064351345337e-03
-8.651594076679453016e-03
-8.972197899833814563e-03
-8.630387160057383794e-03
-8.808999273724816767e-03
-9.536043082252330938e-03
-9.407147259648664800e-03
-7.229952991727830493e-03
-3.609293931365044079e-03
-3.923737863215925339e-04
1.211159096481169255e-03
1.452664501081417890e-03
1.284689053501142635e-03
1.429033463655485659e-03
2.053472009507622317e-03
2.706749006963898689e-03
2.556854852919724329e-03
1.213755330306826551e-03
-6.327435083445558583e-04
-1.742629183856042900e-03
-1.493731879985256850e-03
-2.926126750044580728e-04
1.043034592693806986e-03
1.953170723700124733e-03
2.255642881968369842e-03
2.049816797691152593e-03
1.662038141961294296e-03
1.449078642143171881e-03
1.505232730122375981e-03
1.636945700009827340e-03
1.652144681181540349e-03
1.581818036704811959e-03
1.585955344149764246e-03
1.732007002010720401e-03
1.940866733011608735e-03
2.115800306258431521e-03
2.248600176370269856e-03
2.385868777334657336e-03
2.539844542210217999e-03
2.668062797110313210e-03
2.726104650599156607e-03
2.697600660115976288e-03
2.514059685319708880e-03
1.919591688331273712e-03
5.707237753881927575e-04
-1.461786525327216915e-03
-3.340897753601643119e-03
-3.993089269085728539e-03
-3.095354050283258274e-03
-1.356928621787134017e-03
8.043499210967115917e-05
4.407894038970816574e-04
-1.112965860395095496e-04
-6.036875056624844277e-04
-3.859393213793291472e-04
4.750689262748370367e-05
-2.628598524984229268e-05
-2.342314003400761677e-04
3.437956303627577440e-04
1.585232869774877342e-03
2.351684642600593549e-03
2.156185679785147143e-03
1.951843652869218737e-03
2.819357257427499222e-03
4.142225833813278218e-03
3.761559979335960674e-03
5.816263800712904303e-04
-3.348899816390528764e-03
-4.647512175756335177e-03
-2.716850189784284896e-03
-6.170430290404443734e-04
-1.134704677489775920e-03
-3.316699594908557956e-03
-3.984391812375526545e-03
-1.765437392158676535e-03
1.573793903878877758e-03
3.445702260899099773e-03
3.053019133122298039e-03
1.546365590740197494e-03
3.862498949163372373e-04
2.065485809495959401e-04
9.176183074842194374e-04
2.043088973805101856e-03
2.848174853482530501e-03
2.723844584883538741e-03
1.619057339855765193e-03
-8.579538401240033004e-05
-1.928130744488467090e-03
-3.370307506169649067e-03
-3.830533014458652706e-03
-3.134138859590829360e-03
-1.890966470317905282e-03
-1.208411092469265048e-03
-1.823520698145924884e-03
-3.340161766956837794e-03
-4.421593699696289327e-03
-3.962641689327091321e-03
-2.110883938738494520e-03
-1.681614219764286850e-04
4.782199059029290569e-04
-4.949614549275137710e-04
-2.157357644746763295e-03
-3.335813921946142666e-03
-3.644991429306318562e-03
-3.367810301439967766e-03
-2.645918838840224854e-03
-1.258330138984581651e-03
7.282335511691118753e-04
2.491301061104611841e-03
3.150354514785885969e-03
2.972911159032613857e-03
3.314335004151167108e-03
4.891904718565228891e-03
6.408593777039662404e-03
5.591713555769189242e-03
1.891925476420384944e-03
-2.237338648845485327e-03
-3.390800913043722897e-03
-7.562668059647386460e-04
2.832263777016189900e-03
3.780050703348094253e-03
1.385626689771201356e-03
-1.761166609028305425e-03
-2.807199594394660901e-03
-1.541440855630260261e-03
1.959404063680463340e-08
4.266401937666651966e-04
4.697328258183934807e-04
1.262050369611173069e-03
2.284452341846960211e-03
1.973555298731352690e-03
-1.858328446212184843e-04
-3.044389431210851524e-03
-5.194026752737381999e-03
-6.468275518484086287e-03
-7.776620536666265827e-03
-9.539592110655328167e-03
-1.069190905820954600e-02
-9.618954803941889495e-03
-6.003058784277883440e-03
-1.464433376115276738e-03
1.625268260684920724e-03
2.012860964711735839e-03
5.972964072951270770e-04
-3.974539803160714608e-04
4.051455908226630218e-04
2.378559327574317206e-03
4.128594220205577051e-03
5.193532342431568180e-03
5.863811862643193880e-03
5.951952861121621863e-03
4.807490742037898342e-03
2.588581880243951902e-03
6.978289193921769201e-04
4.479860324893493624e-04
1.600394053275085941e-03
2.711782930804317992e-03
2.815969927151155960e-03
2.286720290260602778e-03
2.020642468128126118e-03
2.266680713917171124e-03
2.544643061217437014e-03
2.435871543242806685e-03
2.064131200004325900e-03
1.784124398424306347e-03
1.625970083456479811e-03
1.149455787532838386e-03
-1.366531777244948780e-04
-2.117492885742144025e-03
-3.933768126568158545e-03
-4.848371920170718025e-03
-5.144981550660755569e-03
-5.537329597657688653e-03
-5.770593634137254069e-03
-4.828416542034996185e-03
-2.762510234833586743e-03
-1.209689385909906365e-03
-1.523518181104315319e-03
-3.196139181303736965e-03
-4.567000382868531029e-03
-4.314346328632321162e-03
-1.956863615443651862e-03
2.039162024894372333e-03
5.943664867386046213e-03
7.399026093443620417e-03
5.420362193217817363e-03
1.664475800468968782e-03
-9.986191905960747992e-04
-1.363276877151865536e-03
-8.254735792420012227e-04
-1.113730226380816712e-03
-1.790953864825611374e-03
-1.048536458856783602e-03
1.337820566605300854e-03
3.262277753572593274e-03
2.844412974633674703e-03
6.644312380292684370e-04
-1.100206266872886694e-03
-1.044435366835835387e-03
5.492506502206973137e-04
2.551855062594537635e-03
3.856607312310598133e-03
3.725934302755782440e-03
2.298770923510370066e-03
8.113485273530582874e-04
6.127587957670014782e-04
1.916449345975083192e-03
3.830560288985864099e-03
5.245380401435192387e-03
5.369308959827854937e-03
4.061830595372708380e-03
2.212985489628757022e-03
1.201836171523462931e-03
1.327761003280242182e-03
1.213637540430639958e-03
-5.530316652775579215e-04
-3.358005592808737273e-03
-4.830120749012119068e-03
-3.557335647283117741e-03
-1.195723682766502722e-03
-9.845728478115173526e-04
-3.880056759132401688e-03
-7.151363440906077264e-03
-7.493026273913049214e-03
-4.650520256284500567e-03
-1.198665238683475128e-03
4.537679581348517260e-04
-4.119079861292663375e-05
-1.505082355644716402e-03
-2.724191867652827996e-03
-3.308264911550294445e-03
-3.418092503584192320e-03
-2.981852389764694158e-03
-1.584861579209466322e-03
6.797348446348388303e-04
2.627503046732171735e-03
2.771994175750156462e-03
7.848021935290829757e-04
-2.031916639505994097e-03
-3.781251552401735695e-03
-3.446913061787767844e-03
-1.552135140618621191e-03
2.801239010140817187e-04
5.112954721995175951e-04
-9.075901956210301194e-04
-2.098154386671154809e-03
-8.986115793445905364e-04
2.631734161363600590e-03
5.774473954859573807e-03
5.609121003957999625e-03
1.870451490571122758e-03
-2.686404903530397945e-03
-4.732876555116732539e-03
-3.143390678360885506e-03
5.765357702032271325e-04
4.056147466590800249e-03
5.688432252582456029e-03
5.031498263774985061e-03
2.695007789206127664e-03
7.677991983754724062e-05
-1.332286629146133211e-03
-9.772770770322181978e-04
6.223795488992795973e-05
-2.559326191282589708e-04
-2.811676301300665339e-03
-5.922779728377969462e-03
-6.738533293730702631e-03
-4.207193317981805514e-03
-4.140383943656525292e-04
1.332490205917757865e-03
5.989451123534025477e-05
-1.474323979701938538e-03
2.861240739232904628e-04
5.427920121589537190e-03
1.019222731343522384e-02
1.100673516037320443e-02
7.944910570808325426e-03
3.912828620366463200e-03
1.369061146713294267e-03
5.184433135150093601e-04
2.644131460712467502e-04
1.223431660816250057e-04
7.896396318189896710e-04
2.838708909178589302e-03
5.235808572975089899e-03
5.789390513719836796e-03
3.366401837221144611e-03
-6.899699060203101208e-04
-3.754743507870326145e-03
-4.399317503347489368e-03
-3.446013000793163219e-03
-2.765557901117177489e-03
-3.308149697769980496e-03
-4.296469941901600795e-03
-4.343844175446988018e-03
-3.318564830286347463e-03
-2.595397613340706504e-03
-3.174327707046853148e-03
-4.320791440771479253e-03
-4.707879770452292126e-03
-4.141423993723161896e-03
-3.392767749880509776e-03
-2.971896434707041977e-03
-2.764825957102361176e-03
-2.404549074729404705e-03
-1.512346053249642459e-03
1.602231081823722678e-06
1.539435144720953342e-03
2.156837774700058868e-03
1.614948143164348596e-03
6.759625107480720946e-04
3.548241897615973892e-05
-5.381750665398623819e-04
-1.397310249338927675e-03
-1.746559690961351028e-03
-2.096562478931969769e-04
3.134356554024751891e-03
6.136109565677882842e-03
6.611027914622929699e-03
4.645914757661699125e-03
2.307268304344757201e-03
1.239710503116814256e-03
1.263383356780593218e-03
1.361730341769039950e-03
1.184742617534678905e-03
1.128149175455107423e-03
1.509035380487262290e-03
2.259518998984968389e-03
3.162239794292851826e-03
3.855291348476220376e-03
3.825443770840896741e-03
2.982975224799199344e-03
2.081356332876040452e-03
1.927714906549239833e-03
2.170674360740838284e-03
1.388280212920883381e-03
-1.470017541534958914e-03
-5.892723880378771505e-03
-9.975410714970931944e-03
-1.177473598317726848e-02
-1.092722016639674672e-02
-9.064703613640276089e-03
-8.122406057068924656e-03
-8.054375729483016430e-03
-6.838807616851853149e-03
-3.187077916528284656e-03
1.323161054017518105e-03
3.710988499759720720e-03
3.066096277326590437e-03
1.482647942426657678e-03
1.195017526232097869e-03
1.970273458080784926e-03
2.200567517066865948e-03
1.461927638074088593e-03
6.637237891317270466e-04
4.066398076196901259e-04
5.373914953452363103e-04
9.101806303840714570e-04
1.516925604925219856e-03
2.115758064364368137e-03
2.479549960098210298e-03
2.761689690537084008e-03
3.036469232096081911e-03
2.844068710887199744e-03
1.915218258801495640e-03
1.068307972197028721e-03
1.495934574941124202e-03
3.116675024963688409e-03
4.398864578238703173e-03
4.063694257071245007e-03
2.407947787942052876e-03
5.763370033342880405e-04
-1.115413940315702250e-03
-3.459320243146020348e-03
-6.695448040292126084e-03
-9.242634259791536813e-03
-9.158161989584478330e-03
-6.796231250647615310e-03
-4.651044995068780857e-03
-4.109208603773318279e-03
-3.846726945661007799e-03
-2.364695201053763907e-03
-6.374634888117984436e-04
-8.057381356162541912e-04
-3.214374150143542441e-03
-6.186107091292586055e-03
-8.142126441053353092e-03
-8.654630041792916312e-03
-7.817453642962639976e-03
-6.017764104737481808e-03
-4.488085029351414693e-03
-4.820071692637463434e-03
-7.157148003451590038e-03
-9.411829114695440673e-03
-8.975352894024960643e-03
-5.199982378670948459e-03
-2.255146355099272443e-05
3.821966562579246201e-03
5.211169048672872027e-03
5.303488350302928457e-03
5.914830940809447102e-03
7.617483486687452038e-03
9.600468677884194113e-03
1.091485433433839192e-02
1.134197358557670343e-02
1.109441213915373162e-02
1.013278500938312801e-02
8.146939077773923329e-03
5.098031565341150026e-03
1.490205516276391518e-03
-1.801919231850758994e-03
-3.808810518832558660e-03
-3.853978749809972883e-03
-2.077063118936475338e-03
3.876014829682157721e-04
2.081772736783341765e-03
2.403352644357265120e-03
2.074308319327183153e-03
2.281937636810869603e-03
3.471468745946738963e-03
4.959366889523995035e-03
5.437334118330743905e-03
3.989188680858242464e-03
1.139081452793425705e-03
-1.141769161479245500e-03
-1.119588170250469892e-03
8.256629461049309546e-04
2.550082565865830278e-03
2.564777771869720772e-03
1.530667974936400803e-03
1.066005768658743070e-03
1.688883822973815145e-03
2.510974233594281090e-03
2.631265374822449807e-03
2.148385264239413388e-03
1.717018779663849167e-03
1.602996491267164080e-03
1.514115492037074184e-03
1.227190158244657794e-03
1.096672074964173465e-03
1.764208903776408495e-03
3.287177330919069992e-03
4.677649749246429525e-03
4.598192565549038234e-03
2.616572444444976650e-03
-3.736676711287127695e-04
-2.962730203118759884e-03
-4.184961068863110589e-03
-3.635688931705653368e-03
-1.210671663629680258e-03
2.534086387285464179e-03
5.922886793300803122e-03
7.112653881489700708e-03
5.903316947173733141e-03
3.874024053943220334e-03
2.505182505329882868e-03
1.913083771858078855e-03
1.477631640330977561e-03
8.040294887014869888e-04
-1.037874907760045942e-04
-8.489015645880670490e-04
-6.862358824969286069e-04
7.113032080653295492e-04
2.361145853514241312e-03
2.506371583795321840e-03
3.447876317209934861e-04
-3.142883678648165403e-03
-6.225900367949137662e-03
-7.904533645703284289e-03
-8.198229557146084062e-03
-7.418612204230255747e-03
-5.733995935419442837e-03
-3.472407115130710792e-03
-1.253533812383160993e-03
6.343854090320061876e-04
2.538527625349290204e-03
4.476142849676819149e-03
5.359306328798258898e-03
4.164243793085195371e-03
1.625866043991327625e-03
-2.099964125296506848e-04
-1.884600429668520762e-04
8.044039720296420823e-04
1.064035137711780198e-03
1.167760869262284441e-04
-8.436593329679759664e-04
-6.145305212342904973e-04
4.424119327263568470e-04
1.027910999404361286e-03
8.367351207470319656e-04
9.374368988522008284e-04
1.902309914059218321e-03
2.512487955517402061e-03
1.239418990242448964e-03
-1.601234361810168188e-03
-4.282412980246979271e-03
-5.857018041787846047e-03
-6.677240486163664966e-03
-6.915218578287378806e-03
-6.020029454896884576e-03
-3.993179837543922583e-03
-2.007583042936648878e-03
-1.113698682990668784e-03
-1.102574799078627314e-03
-1.252471159177949911e-03
-1.532364676462207899e-03
-2.276775125574249763e-03
-3.068210604991344383e-03
-2.817293481332334027e-03
-1.029572265377862346e-03
1.450346962861611549e-03
3.114900479026634205e-03
3.137805254811431525e-03
1.976056856847118771e-03
6.413907763225137979e-04
-3.201144145169959555e-04
-7.956320037364094039e-04
-4.972717782515377345e-04
7.129152266109488106e-04
1.917680897128865285e-03
1.591570601511712452e-03
-5.947923173509636705e-04
-3.039963585680810834e-03
-3.728162070846350630e-03
-2.228730372622067697e-03
-3.267095364725713415e-05
8.850168452631843952e-04
-2.271129184808870667e-04
-2.412814564498612889e-03
-4.053025952266951087e-03
-4.298459127314111644e-03
-3.439640347515966409e-03
-2.241226611625784116e-03
-1.471096846142228628e-03
-1.778839393800930174e-03
-3.003662091461062507e-03
-3.537683304759351235e-03
-1.598116673429986374e-03
2.345436725035523595e-03
5.541836938926601036e-03
6.215353198435679197e-03
5.835323647736637663e-03
6.833655027767684964e-03
8.728683206099553324e-03
8.316235700626917540e-03
4.095258005604740688e-03
-9.649702413379549360e-04
-2.398475256306845712e-03
5.226828474237716791e-04
4.045619583580316314e-03
4.568099437635361054e-03
2.436084197873466563e-03
3.551541635973779355e-04
-5.559587190487646005e-04
-1.566760413703124867e-03
-3.757840273091953270e-03
-6.330445238723290784e-03
-7.882876775656518648e-03
-8.328876212527171891e-03
-8.775987565575953109e-03
-9.776528036959266851e-03
-1.040517152312747662e-02
-9.437843747290172031e-03
-7.180752550237434924e-03
-5.492237086339763971e-03
-5.724754769504549791e-03
-7.126720439864464747e-03
-7.680159976305821548e-03
-6.129713988308947877e-03
-2.849009122521465633e-03
8.256796642367473724e-04
3.610389487469163432e-03
4.891577404379873588e-03
5.012951601337669628e-03
5.204629457292567207e-03
6.718710167126272156e-03
9.384502945211417244e-03
1.119648722056403381e-02
1.012495427002995177e-02
6.484542682216036524e-03
2.829887985255948989e-03
1.276066977998058152e-03
1.572414015746324660e-03
2.091170203504227627e-03
1.960733267252752141e-03
1.600557210377424096e-03
1.557336275978451990e-03
1.583650619315279647e-03
1.132161238501127286e-03
4.098646008297715331e-04
2.666161589638796131e-04
6.984914940748065439e-04
4.533938119286311675e-05
-3.429952067092198985e-03
-9.144188755244149480e-03
-1.413427631665399933e-02
-1.576311654496323489e-02
-1.409005826800178475e-02
-1.129392572323814278e-02
-9.257731344659375639e-03
-8.247370015651756328e-03
-7.657985044837970975e-03
-7.309345607652942799e-03
-7.594282008811709984e-03
-8.517620905385063848e-03
-9.160260074201596187e-03
-8.500637119377773415e-03
-6.579015970238373708e-03
-4.399600953981995001e-03
-2.525404887835422559e-03
-1.394481266203820638e-04
3.877830215452211272e-03
8.910819073110535365e-03
1.252019901574446571e-02
1.297789218833472584e-02
1.123668427229310846e-02
9.633087522172522482e-03
9.170263600580130445e-03
8.938067510488350437e-03
7.907519273007895810e-03
6.396102101818772027e-03
5.541061401806345911e-03
5.819560662671204032e-03
6.549260762161987492e-03
6.751066887478825683e-03
6.042873891560130231e-03
4.615813787554351455e-03
2.834540370125490562e-03
1.141891370224298614e-03
4.444977378760062506e-05
-1.516365538269713945e-04
3.402578204063578713e-04
8.427744104065907835e-04
8.002404781244027224e-04
2.411619142001116261e-04
-5.949704362286584516e-04
-1.738716931235703960e-03
-3.038913534011333274e-03
-3.640486899468305462e-03
-2.760899309705922618e-03
-8.526389817839195341e-04
8.276157692814077507e-04
1.819477287552943162e-03
2.748252264145279507e-03
3.837707134893068167e-03
4.211189318183129748e-03
3.355375278398684599e-03
2.407888276022283110e-03
2.900259526607071835e-03
4.580220838291089620e-03
5.625121536524590668e-03
4.977097776689335881e-03
3.276939993450006701e-03
1.419986365956172735e-03
-3.660584339896794234e-04
-1.681768933431650051e-03
-1.676513380844055863e-03
-2.701310873844357395e-04
1.293862817401862132e-03
1.695537751095438014e-03
9.892815099207653926e-04
5.624094810050567911e-04
1.657790986252323647e-03
4.005129974210006570e-03
6.111410824218615513e-03
6.869267901045646163e-03
6.552525720956318099e-03
6.268626631791359913e-03
6.880725878979678835e-03
8.525064040731262713e-03
1.065523386491196330e-02
1.222350087118822051e-02
1.212652850212240195e-02
9.976795662247954499e-03
6.707712164953549307e-03
4.297657024121995933e-03
4.314940665048903716e-03
6.304951980079524960e-03
7.916489198236004513e-03
6.975311729418867852e-03
3.339225867990451568e-03
-1.127788112712772069e-03
-3.992367000154985537e-03
-3.932995117506240743e-03
-1.737885800545211495e-03
2.284661438019429868e-04
1.854895570891367288e-05
-2.181699917085965813e-03
-4.404309151949194027e-03
-4.883840348198408010e-03
-3.558376448565792830e-03
-1.824716605533269458e-03
-1.090806854993051989e-03
-1.511929251901739449e-03
-2.035663723673866547e-03
-1.774011997798586194e-03
-1.223430816601659733e-03
-1.599274066967570516e-03
-2.913254150436061715e-03
-3.723654952540067075e-03
-3.320290071843901968e-03
-3.062874115909318753e-03
-4.614156541658647089e-03
-7.554072580048438318e-03
-9.717352229304377850e-03
-9.630433826654707236e-03
-7.746066877057474626e-03
-5.235435266653103333e-03
-2.617186203489558181e-03
-2.957856846489004678e-04
4.657922971613546342e-04
-1.372633060512290547e-03
-4.577205471695966997e-03
-6.127986036273790592e-03
-4.502354118478961963e-03
-1.530102728254244000e-03
-8.695572438863837135e-05
-7.129782313108696179e-04
-1.581700092305779676e-03
-1.194744166026359081e-03
2.507032836316237909e-04
2.102736202967420229e-03
4.551979874301814374e-03
7.983814565953812128e-03
1.160309681532861216e-02
1.360406765059916576e-02
1.289184025244995840e-02
1.016106388876495889e-02
7.052035075094159090e-03
4.641169130620084737e-03
3.061187874300103171e-03
2.170029179419709527e-03
1.810090507088800297e-03
1.208631380407592520e-03
-1.065446226349006653e-03
-5.500920379691171154e-03
-1.008959028287638796e-02
-1.154625992571829685e-02
-8.639329333311372705e-03
-3.667887949045461025e-03
-1.793369225142216888e-04
3.021984847439723883e-04
-1.103605601809786157e-03
-2.630718773148075715e-03
-3.543366913313750199e-03
-3.956150525842630147e-03
-4.027944297939995907e-03
-3.828974920975205132e-03
-3.542816556108230926e-03
-3.293120302339444787e-03
-2.797230608967565552e-03
-1.533281713689075773e-03
5.062212036757513444e-04
2.397805985275316010e-03
3.055167126140101962e-03
2.501295365212382639e-03
1.980125363120774015e-03
2.496877437130730262e-03
3.438345189886974403e-03
3.138445762511909640e-03
1.038502700485056853e-03
-1.189740426030514798e-03
-1.344514963584151051e-03
6.207416733230876728e-04
2.334414181712082814e-03
1.458693272679025031e-03
-2.197142115251531427e-03
-6.862562832040789568e-03
-1.027819525213845113e-02
-1.099026506322062571e-02
-9.085140019427631608e-03
-6.037314824336920994e-03
-3.418761069563896506e-03
-1.563351835698047806e-03
2.262260460236763238e-04
2.220626426969661300e-03
3.546821465172392274e-03
3.176538386132680102e-03
1.374647024037682977e-03
-1.398345761912087081e-04
3.850197971483268478e-04
3.072857404841119414e-03
6.199932915369787793e-03
7.752991210369509015e-03
7.186604677982337888e-03
5.521443590462515698e-03
3.968850895930384898e-03
3.013126012831789102e-03
2.699959230113898028e-03
2.903274239729961535e-03
3.104184408636381093e-03
2.785852031784600245e-03
2.371817006518527927e-03
2.950256177373242888e-03
4.573846800715968691e-03
5.618863617127572117e-03
4.758444316620057124e-03
3.023791743543856325e-03
2.480738533745399568e-03
2.965734942864596546e-03
1.983226697650306708e-03
-1.460432524865737033e-03
-4.613539577065830719e-03
-4.020642744373224137e-03
6.654205918010379795e-06
3.489655731507919269e-03
3.398431758244584242e-03
9.224681600706497332e-04
-6.517203354302574100e-04
-4.917086222038887693e-04
-1.015235823150273820e-03
-3.964262996260447050e-03
-7.508017898330537204e-03
-8.489817728225832263e-03
-6.377476821658231883e-03
-3.493321070479305304e-03
-1.964342691461168269e-03
-1.891721542543820704e-03
-2.318019456725686506e-03
-2.621209150258204529e-03
-2.540100295682912613e-03
-1.716135604374112965e-03
3.938778817430565495e-06
2.036749527180190152e-03
3.448347362860223683e-03
3.952297553678748264e-03
4.248977257928140787e-03
5.267170964867625739e-03
6.975710734545471740e-03
7.859614192261478449e-03
5.948278871493744777e-03
9.422229692036851283e-04
-4.719484037226468788e-03
-7.561510898931490463e-03
-6.274383503288173854e-03
-2.950919309030904797e-03
-6.976301736239067831e-04
-3.375509043808022809e-04
-2.312168690273100910e-04
9.596733821537849337e-04
2.683423905958314763e-03
3.907068438195104854e-03
4.634997682210323031e-03
5.097592711148248544e-03
4.528543721262211739e-03
2.166826153937914234e-03
-9.226793994914029911e-04
-2.456735957869654076e-03
-1.525461135344568109e-03
4.292944706351671091e-04
1.400837178830669719e-03
8.815583100713819328e-04
1.007743704291266980e-04
6.881107377469726939e-04
3.057145384252058819e-03
5.792832647803304418e-03
6.687519616978045318e-03
4.638880853203209212e-03
6.535208104479257743e-04
-2.992145810062747657e-03
-4.567002907170531964e-03
-3.983404558695068792e-03
-2.437129911304153785e-03
-1.266652629742663020e-03
-1.047626853955125215e-03
-1.363338552255881613e-03
-1.201447788567545916e-03
2.590168781989563604e-04
2.869983189043814453e-03
5.360549952258810043e-03
6.322431514818848894e-03
5.776092133984477191e-03
5.432918484385524868e-03
6.706333446472811932e-03
8.691528557928282148e-03
9.088602090215006785e-03
7.134938808182155270e-03
4.484010554698406210e-03
2.885908967911321368e-03
2.221810230503183225e-03
1.504521902126900509e-03
7.357413055418973811e-04
7.037388308766307117e-04
1.433801125664441916e-03
1.814461916012025632e-03
8.581184799151876132e-04
-1.089407975799042399e-03
-2.599560746031218464e-03
-2.601849494193536616e-03
-1.454343945389920513e-03
-4.487909090550759161e-04
-3.806129713391008485e-04
-9.126480577946921623e-04
-1.357349815600460748e-03
-1.696029881425661998e-03
-2.475000683893624660e-03
-3.810721049958096674e-03
-5.008560070505617412e-03
-5.458944477063027399e-03
-5.567285233602320589e-03
-6.277912895267641347e-03
-7.721880945193006739e-03
-8.837169779410233156e-03
-8.489813034931415966e-03
-6.657188138537180506e-03
-4.414157355967841291e-03
-3.004247741042783380e-03
-2.922488889423510098e-03
-3.652560615669007971e-03
-4.243069830610018620e-03
-4.212538133310924846e-03
-3.859610274972049768e-03
-3.719467273693929238e-03
-3.917027149666811071e-03
-4.144981582648712970e-03
-4.061414999860258127e-03
-3.458519915246301233e-03
-2.179939454090332272e-03
-2.567406218084103560e-04
1.887897112960163501e-03
3.736089673272256252e-03
5.120475186404497940e-03
5.964188920438742193e-03
5.735826191765059853e-03
3.920223886177286524e-03
1.279722500214822969e-03
-2.029822811148429269e-04
5.420642073035965769e-04
2.153185485457847267e-03
2.424433417900257945e-03
1.041954027791263315e-03
-1.924306714432461084e-04
3.129255185156046152e-04
2.102193452837820224e-03
3.248873619029914780e-03
2.473026653271119188e-03
4.365466034506128344e-04
-1.095517066498267675e-03
-1.034029216261489730e-03
3.363790714215626060e-04
2.030411392566419237e-03
3.162458944417264814e-03
3.223046703617949739e-03
2.276146298446308624e-03
1.103095678395813167e-03
6.647588992508882653e-04
1.221109742660992335e-03
2.323199419874129139e-03
3.631960096369328365e-03
5.144788917347308324e-03
6.483658466367227605e-03
6.629663518793201156e-03
4.850267525010810120e-03
1.650216109792356552e-03
-1.481924850954346399e-03
-3.127787511543886605e-03
-2.786717516224464838e-03
-1.259959017268679274e-03
-3.478696869460700140e-04
-1.380271847376784598e-03
-3.576692870954277254e-03
-4.425029047655236122e-03
-2.152226057635227025e-03
2.363942179389420372e-03
6.213985963410129446e-03
6.922235348412666446e-03
4.596248624008225994e-03
1.813147522241760450e-03
1.106175367723926436e-03
2.495915875043651280e-03
3.794256862553276391e-03
3.238555167433106608e-03
1.151976733608561353e-03
-1.293655416444141866e-03
-3.988777112845843555e-03
-7.234531728594167412e-03
-9.633458548929302312e-03
-8.663122203509059094e-03
-4.084450628562349625e-03
7.141879612947386055e-04
2.033615168698245379e-03
-1.675988988934610526e-04
-2.787194679216311449e-03
-3.526699675997503960e-03
-2.778634983531001745e-03
-1.679229671219947210e-03
-1.333313223666475781e-04
2.383462307685455493e-03
5.218098637437993022e-03
6.926195970942722498e-03
7.003632251216067132e-03
6.245276840048306216e-03
5.189733395919422440e-03
3.204821351079153655e-03
-1.325083785025020586e-04
-3.454891700065570916e-03
-4.481237514314769486e-03
-2.461315159051567867e-03
8.729761564225640546e-04
2.960189133720747372e-03
2.776847958440042865e-03
1.434142107353757623e-03
5.751743601053918142e-04
5.464340374140251588e-04
4.090048099614994846e-04
-5.950683623910356119e-04
-2.345732694430149347e-03
-4.566658059295578345e-03
-7.113429048000987839e-03
-9.116759020139255168e-03
-9.080863647618274762e-03
-6.721860661585597578e-03
-3.753162903325224509e-03
-1.966526687160996632e-03
-1.423767141399650497e-03
-1.467696423459938660e-03
-2.563298687985134452e-03
-5.599714132548574107e-03
-9.492579466585627027e-03
-1.107856940256188825e-02
-8.400833996974646847e-03
-3.385316959289315711e-03
1.791299931396591466e-05
2.919233288160845256e-04
-2.435897546731570842e-04
1.287764706458616269e-03
4.908493508555811929e-03
8.398257662551901481e-03
1.028190095324046580e-02
1.089196442012126988e-02
1.068766371446774714e-02
8.988968077379023286e-03
5.272040856512451648e-03
1.000096336180463907e-03
-1.160960731954359913e-03
-1.405227525127724936e-04
2.436065696209365177e-03
4.254826639543334704e-03
4.671025609225283592e-03
4.705811292173608072e-03
5.328900029866163492e-03
6.263619939888976328e-03
6.280470761449705175e-03
4.386136246860278427e-03
9.166522924361803111e-04
-2.303734771017644685e-03
-3.278948970311986420e-03
-1.857487228248563393e-03
-8.920123305845015834e-05
8.062771775114042222e-05
-8.887502035325083385e-04
-8.486031512314052942e-04
1.325644380089051333e-03
4.449051245052602216e-03
6.400888871570629447e-03
6.258050129542666769e-03
4.837556345565817949e-03
3.329387957218674608e-03
1.894837603246385480e-03
-6.597379338453286234e-06
-2.302144982926941121e-03
-4.146966997533942795e-03
-5.046706420586154207e-03
-5.299983095244244213e-03
-5.244309542816868661e-03
-4.884113549608747225e-03
-4.405700274004831218e-03
-4.298626258060149474e-03
-4.698166645697586692e-03
-5.112127130564474327e-03
-5.048554161497650558e-03
-4.594478561546979853e-03
-4.129627229161317824e-03
-3.673542084959579429e-03
-2.861695102971605672e-03
-1.514680636285894218e-03
2.022733951456879187e-04
2.152280484007351898e-03
4.104271087099700330e-03
5.253069427026420268e-03
4.754616048544591661e-03
2.853130452498937354e-03
6.271702509181452303e-04
-1.398398281886196592e-03
-3.406120409312808801e-03
-4.962924309693173518e-03
-4.757024793060113561e-03
-2.320664778801852061e-03
7.682896824283214424e-04
2.209784894384806894e-03
1.297430366353303187e-03
-5.259369588446148863e-04
-1.360672114494532181e-03
-7.605486660281816046e-04
2.247541224641530998e-04
6.440829078745413097e-04
6.974317541382454334e-04
1.072160319780616437e-03
1.918517729259376419e-03
3.001368458742301876e-03
4.327835837799672881e-03
5.902112457717428352e-03
7.184257221158240475e-03
7.569365879846409045e-03
7.240009281988887477e-03
6.752303921587135896e-03
5.837677434088185853e-03
3.493137176517176201e-03
-4.922451411009981688e-04
-4.790360995730186255e-03
-7.798907475871032571e-03
-9.319998482617299768e-03
-1.040122381199631851e-02
-1.147036779698939850e-02
-1.124708526326106267e-02
-8.145884744397133281e-03
-2.636810682129574462e-03
2.596530505985972844e-03
5.232132560890330290e-03
5.460236880470663648e-03
5.121940252934996038e-03
5.335694859299518027e-03
5.697810950341594682e-03
5.450807479063755900e-03
4.634773366483009756e-03
4.010199153868764833e-03
4.214269475963186920e-03
5.028534024014051466e-03
5.345724528393575037e-03
4.090577470521201617e-03
1.527737181111151398e-03
-5.244070583276042030e-04
-2.898098995660627290e-04
2.063390482285714853e-03
4.352920060814956076e-03
4.373286567661798310e-03
2.122570358149075340e-03
2.549110339445357937e-05
5.508793755522749290e-04
3.486664600543142555e-03
5.971346685828478849e-03
5.415908395057893177e-03
2.139319074352336557e-03
-1.137267331973745767e-03
-2.332205124402069764e-03
-2.084657459755475620e-03
-2.488871856016829608e-03
-4.337883027861145525e-03
-6.501401289725342210e-03
-7.773424816698456391e-03
-8.263178822445357841e-03
-8.684922637597940892e-03
-8.963147869642489399e-03
-8.102644543699060592e-03
-5.411723844192828717e-03
-1.591547040268539385e-03
1.541407131503035738e-03
2.494419686309614064e-03
1.366389245255681621e-03
-2.959240789194522801e-04
-8.965367182213611515e-04
1.151573925136052320e-04
2.413708745965591033e-03
5.257212041386531177e-03
7.322080029936332835e-03
7.068204133604925540e-03
4.467581191716885405e-03
1.862478747583587793e-03
1.781990894272098003e-03
3.923201405295508384e-03
5.288899907224209503e-03
3.521840645999722071e-03
-5.369391951021542167e-04
-3.915605653011836398e-03
-4.646136560224207665e-03
-3.281259447182930354e-03
-1.605894468923100941e-03
-6.787690325179617044e-04
-3.684048079258539499e-04
-3.520547332779514621e-04
-9.776687605175065059e-04
-2.632707285440553761e-03
-4.347172026057897869e-03
-4.031226495861849578e-03
-9.633300870475847242e-04
2.515076075561149122e-03
3.169618722794692069e-03
9.646497243477394901e-04
-4.098778491986615913e-04
2.000498712833780578e-03
6.478853823476203588e-03
8.491895203787080265e-03
6.079133422464190820e-03
1.988023231863823501e-03
1.374505254243829373e-04
1.180493780378849555e-03
2.531265171954295411e-03
2.058586310902184909e-03
4.470072225281893682e-04
-7.323751868384487454e-05
1.705365608125046116e-03
4.919302511489602805e-03
7.534333731271674120e-03
8.188329897056166595e-03
7.424204539752303836e-03
6.849796989335811201e-03
7.061919964062054848e-03
7.249794303223521322e-03
7.004261557566260864e-03
7.150543067164835849e-03
7.993179596713195778e-03
8.088647826228593379e-03
6.251675996251115398e-03
3.985457293449999952e-03
4.182611271043397937e-03
7.428869068798480205e-03
1.088099935444638081e-02
1.120777397120431042e-02
7.961854818022695568e-03
3.609805720209231447e-03
7.309476784964122863e-04
-1.096281710208191033e-04
-2.028956379810688271e-06
-2.796849644271094497e-04
-1.782582909301143066e-03
-4.652815104395212342e-03
-8.081474894543709889e-03
-1.053927058459955268e-02
-1.091931219442798633e-02
-9.459914711522788427e-03
-7.124163966012606042e-03
-4.208120837743305372e-03
-2.877807075446739589e-04
4.233729155749944503e-03
7.302970290916298637e-03
6.814243334472492447e-03
3.029153784124057926e-03
-1.288055165426458745e-03
-3.442826793015319603e-03
-3.058472727753990331e-03
-1.668782476931448058e-03
-8.526157022168264973e-04
-1.129541502713053225e-03
-2.090276536476501530e-03
-3.162621287754795261e-03
-4.210841490785515416e-03
-5.206616406140414550e-03
-5.587184128094615024e-03
-4.764299082761559376e-03
-3.139422674745880049e-03
-1.635531755796202497e-03
-3.771183389101231270e-04
1.114124884701622048e-03
2.594873162050950061e-03
3.146140266276027664e-03
2.590742951033141606e-03
1.826431735818998502e-03
1.551527370868587170e-03
1.559553344624683372e-03
1.676237695734509626e-03
2.597110289204879793e-03
4.921396782898553035e-03
7.621568497255946928e-03
8.618097380425428916e-03
7.243243314195171520e-03
5.126130063230722317e-03
4.042162132737313514e-03
3.809371595011580569e-03
2.998000168540481715e-03
9.741558469058642176e-04
-1.377127444355652226e-03
-2.561466817707718467e-03
-1.851182335466005496e-03
1.464672356284357681e-04
2.354952439684696204e-03
4.294148065427806638e-03
5.783136304008227799e-03
6.252310793903747936e-03
5.348539025560694431e-03
3.811268045311223124e-03
2.750792547966270617e-03
2.239021686781048591e-03
1.467635140704630359e-03
2.173832625626858153e-04
-6.583356836167480802e-04
-3.251298760818497084e-04
1.138046633280871732e-03
3.086113465925696166e-03
4.759923994031233299e-03
5.036335264664617770e-03
2.830625399039095411e-03
-1.304608137508848128e-03
-5.006619157433201371e-03
-6.792364795534360997e-03
-8.108347835463144970e-03
-1.131545348459130247e-02
-1.609264646569265322e-02
-1.925212733802381462e-02
-1.824185696675143659e-02
-1.370553408567123065e-02
-8.180643591441934953e-03
-3.395355063729669619e-03
2.883890801646323172e-04
2.803366446348752941e-03
4.205593888343110535e-03
5.249389591473038220e-03
6.996560269338543414e-03
9.806436504599478493e-03
1.310796411404242974e-02
1.581844562584656250e-02
1.663478109043451530e-02
1.437777453088244679e-02
8.760133218956481227e-03
1.099285750337963830e-03
-5.958627585250614658e-03
-9.989196444783913359e-03
-1.052631210086913370e-02
-9.275305600801192832e-03
-8.421025892979607311e-03
-8.663601818926468245e-03
-8.858273655917025396e-03
-7.453596667898161089e-03
-4.338617522568330095e-03
-1.340015228717066726e-03
-5.586017910450528532e-04
-2.017230878805729207e-03
-3.495641883094771207e-03
-3.061394376400946270e-03
-1.148809944172959419e-03
4.198903071147400178e-04
8.830431780138031563e-04
1.071830580552899769e-03
1.616028132684689663e-03
1.718989034642900721e-03
3.300370225144330649e-04
-2.074345640166414245e-03
-3.657400427268249314e-03
-3.208530032449407980e-03
-1.700306181574046333e-03
-1.550102309976822672e-03
-3.840214736388134278e-03
-6.397795321040442885e-03
-5.706156586408636482e-03
-1.070386975250421863e-03
4.255831531422279296e-03
6.622998405919072393e-03
5.553881250151992098e-03
3.254762408525825167e-03
1.833390630039200562e-03
1.846800768760229090e-03
2.694625087519976481e-03
3.562286255294735016e-03
4.229695035549419641e-03
5.120596575332767367e-03
6.309927720594640278e-03
6.880735512740313552e-03
5.983183169632562762e-03
4.238332420731989215e-03
3.001138136243689490e-03
2.061736644271964548e-03
-5.557671961509973342e-04
-5.528707125548622606e-03
-1.008742358055792800e-02
-1.046733919032256759e-02
-6.122524433404170040e-03
-3.897624497425101467e-04
2.666145154022805334e-03
1.342494518272645786e-03
-2.977078781256091260e-03
-7.151639522268079044e-03
-8.564837373156782008e-03
-6.568184170454314207e-03
-1.839558812301674527e-03
4.758266834612943572e-03
1.164130259019391031e-02
1.571018605671566787e-02
1.420825759145802857e-02
7.961029837435844303e-03
1.472021217770499123e-03
-1.138384471799219581e-03
1.430255896524091144e-04
1.989522020173291501e-03
1.610785662926158407e-03
-8.169038528116378314e-04
-3.109949996426247809e-03
-3.529268249672402012e-03
-2.231049161075673772e-03
-8.362952471253762895e-04
-7.355518765090865354e-04
-1.603389193424446585e-03
-1.557143839116461193e-03
8.863297934209495368e-04
4.865599570711180537e-03
7.661745073679127223e-03
7.535805837248291117e-03
5.665410081945237118e-03
4.742995969684892996e-03
5.911245758555578461e-03
7.593388463148692535e-03
7.312937182975822251e-03
4.260899011520965021e-03
-7.704466263036861481e-05
-3.476839888631626414e-03
-4.714989867593466846e-03
-3.859696723391313998e-03
-1.519706713339518105e-03
1.583701453947907768e-03
4.403266559449319634e-03
5.655727668782746347e-03
4.753709896269415515e-03
2.549036932359012228e-03
5.466262739300970647e-04
-7.193438359091127625e-04
-1.881870375143012688e-03
-3.185656474534994450e-03
-3.672016475772849238e-03
-2.462815068174744205e-03
-1.392898865804575005e-04
1.793871236057871001e-03
2.436922102708877214e-03
2.140139438881852405e-03
1.984828466087062288e-03
2.799710946435217482e-03
4.258488649000873386e-03
4.817608516932146527e-03
3.084075566406190971e-03
-5.173164475542840843e-04
-3.927279645330249841e-03
-5.604376284864431845e-03
-6.073703320734509005e-03
-6.903183290414874676e-03
-8.511609201264012242e-03
-9.756776850276092580e-03
-9.689095133632271914e-03
-8.865802034392194705e-03
-8.502844244155673831e-03
-8.840286038360503293e-03
-8.868269381247257527e-03
-7.569063730260255050e-03
-5.153097828623639035e-03
-2.956893281352199285e-03
-2.012570986739572847e-03
-1.658103279412805791e-03
1.870325647833502494e-04
4.844238708723057514e-03
1.076095471722842215e-02
1.427183500664296924e-02
1.329728359774914187e-02
9.719437854581881864e-03
7.044116420530251686e-03
6.450390250834213933e-03
6.488835718368650245e-03
5.854755801027927697e-03
4.811454325128778665e-03
4.220927405159836422e-03
4.419962163402921772e-03
5.016049335621851346e-03
5.129042607616094047e-03
3.864109422171801977e-03
1.070942537974578805e-03
-2.085915492139196834e-03
-3.707537627328096920e-03
-2.957153967530631693e-03
-1.187919336096153033e-03
-6.556173777840907345e-04
-2.083047360419692552e-03
-4.010982085869782381e-03
-4.652926177324606324e-03
-4.016948606328791214e-03
-4.031429273799577197e-03
-6.645721131051076508e-03
-1.166447322207533541e-02
-1.644326361853518451e-02
-1.812660266031496797e-02
-1.607699512249101750e-02
-1.156425199708047656e-02
-5.852783659351272656e-03
-3.451900061005979932e-05
4.033160365117346990e-03
4.902591714399819230e-03
3.768270328366742430e-03
3.598323146872502501e-03
5.546898841307767135e-03
7.660783333703921269e-03
7.645459937597055833e-03
5.670528590757973990e-03
3.669956725610087466e-03
2.759943924438176127e-03
2.522503081265066449e-03
2.596161021702254618e-03
3.477358870665676980e-03
5.148691161025311519e-03
6.406836110013599747e-03
6.721481582984033948e-03
7.309234084184225953e-03
8.825173888435129677e-03
9.361738084772090046e-03
6.652270562924730325e-03
1.452220586744029391e-03
-3.033136511326877185e-03
-4.744445596981745200e-03
-4.354237121896491550e-03
-3.372677024686864238e-03
-2.119491273679044961e-03
-1.896051638089586103e-04
2.078690201173744555e-03
3.829926543490861247e-03
5.175597043831828455e-03
7.167511646132251543e-03
9.953626845437381701e-03
1.205989515979776459e-02
1.201402274255249092e-02
9.808593425611411565e-03
6.465273148566505999e-03
3.079102266492271187e-03
4.778073031420251144e-04
-1.140049524802649438e-03
-2.523789993729390248e-03
-4.677629060851411572e-03
-7.671573562734982851e-03
-1.053620223764672147e-02
-1.230270690522273884e-02
-1.276984008261693865e-02
-1.229415409364962956e-02
-1.118625836324720589e-02
-9.430553693196685322e-03
-6.874689362973052456e-03
-3.574382840906295197e-03
6.929007717633201176e-05
3.433149152796273820e-03
5.881714550650409511e-03
6.949694463614305984e-03
6.547500710862136884e-03
5.210156739469439316e-03
4.038204863761950085e-03
3.956437653425252422e-03
4.814480274298066353e-03
5.516073521528075743e-03
5.296933035706052027e-03
4.506992344235411473e-03
3.787487045759724974e-03
3.128032640044150700e-03
2.411620924579499937e-03
2.109104312274383969e-03
2.448855789012822741e-03
2.660520959433026501e-03
2.141143063573881268e-03
1.585897444642453457e-03
1.822818491718850888e-03
2.267355736825459999e-03
1.624636476938530168e-03
-3.551110207502460535e-04
-2.584666481659021915e-03
-3.815772446432278125e-03
-3.707395489594348618e-03
-2.969979380515896331e-03
-2.771003148295502361e-03
-3.914213930214976815e-03
-6.296612880986553716e-03
-8.928331214920452383e-03
-1.043896994242095658e-02
-9.800018252522198214e-03
-6.950148573400394617e-03
-2.880833453153200038e-03
9.926878755608383679e-04
3.583081261599056766e-03
4.387087693882843996e-03
3.462973184766345285e-03
1.497057960841151640e-03
-3.319837838198784648e-04
-1.004924188919236296e-03
-3.519254429588888639e-04
9.461458849259708412e-04
2.054259082646731592e-03
2.745821304465478722e-03
3.526343171177271502e-03
4.807792749975838345e-03
5.909157573125222579e-03
5.364039711024382734e-03
2.594295460467219844e-03
-1.047816154508287049e-03
-3.330267440288983694e-03
-3.247688623174282019e-03
-2.025121664486768079e-03
-1.981887530278014526e-03
-4.168281846624080980e-03
-7.043694567985621727e-03
-7.802184522382116932e-03
-5.202909494588799089e-03
-8.023923667490040750e-04
2.844809566885510982e-03
4.815225364574182709e-03
6.158377640793971305e-03
7.852138049133036007e-03
9.192124957686067036e-03
8.643708937364213973e-03
5.967200458548298919e-03
2.850457469429244859e-03
1.211060011642759804e-03
1.296757720256127037e-03
1.886731720350775989e-03
2.082031767539068139e-03
2.260052234277921523e-03
3.204521174474892105e-03
4.860818147196438455e-03
6.326528661289579185e-03
6.872682794826784000e-03
6.596914584109071604e-03
5.898573647071083184e-03
4.521751251152743636e-03
1.766700786928576510e-03
-1.956147714023310624e-03
-4.457312786056412401e-03
-3.617118243933461000e-03
1.983723544597526100e-04
4.274070824041163036e-03
6.055747529683580196e-03
5.079981839952001955e-03
2.746538851033748872e-03
8.369923649881642023e-04
1.016186637438250815e-04
-1.608039268977979339e-04
-9.838978889795484649e-04
-2.092699188342801372e-03
-2.037209978933568217e-03
-4.008087469270138394e-04
9.470117160689875153e-04
-1.746670665659716339e-04
-3.438290801558994622e-03
-6.301350575718077211e-03
-7.105876928587633555e-03
-6.872557457321411267e-03
-7.568916468424102643e-03
-9.185875036968393220e-03
-9.383877886500484669e-03
-6.186919314709900426e-03
-3.412953468492994761e-04
5.390270466666148390e-03
8.765046621617960526e-03
9.581569463642617204e-03
9.240075917830116101e-03
9.225017643412325441e-03
9.775236389707814277e-03
9.920969847934594035e-03
8.977272821790440935e-03
7.704134304280125904e-03
7.500363977447436700e-03
8.538367968988838652e-03
9.169989366592469840e-03
7.540238915062871285e-03
3.842448209529914296e-03
5.151462126986751508e-04
-3.383879893395933198e-04
5.078304006933848525e-04
1.339676548442579748e-04
-3.147793875849332589e-03
-7.704171032496378961e-03
-1.022954136724198680e-02
-9.145180957134969521e-03
-5.880967220969944564e-03
-3.043127816524402850e-03
-2.016536478785823251e-03
-2.377670408187872522e-03
-2.876289445502851379e-03
-2.438404919762209022e-03
-5.331173298986761379e-04
2.531300202316395624e-03
5.194226999590778777e-03
5.302589659761957654e-03
2.268840767560840674e-03
-1.741986577410539576e-03
-3.865878052755963769e-03
-3.621470843997112114e-03
-2.913656258132681608e-03
-3.110506820554734698e-03
-3.425707760129032692e-03
-2.615632327647480874e-03
-1.037600265065553775e-03
4.920508859330351105e-05
5.242385776278174351e-04
1.470733435266941523e-03
3.388377179379989737e-03
5.461447857724569671e-03
6.654742989931830034e-03
6.651510940959493717e-03
5.682475600061078283e-03
4.206860713762942613e-03
2.836821889446204843e-03
2.086096789290085938e-03
2.198748807503068253e-03
3.300853303997175817e-03
5.255553380926374259e-03
7.235429808125829095e-03
8.084532014710796993e-03
7.371462866091342374e-03
5.525183191490004760e-03
2.835700213020785065e-03
-8.242984644233487378e-04
-4.957009476132121645e-03
-8.039427927460211093e-03
-8.954383840390290131e-03
-8.470744496899341655e-03
-8.515608536726003083e-03
-9.730379147277595439e-03
-1.025581052623462594e-02
-7.655277806831878480e-03
-2.019165569460488162e-03
3.670410586653209337e-03
6.625989067834705398e-03
7.012500005835056033e-03
7.175360761874404261e-03
8.812617915264149213e-03
1.155382880413515292e-02
1.377681275006052003e-02
1.395638319394322709e-02
1.138183507614234577e-02
6.439079682742436701e-03
5.148803646991530420e-04
-4.791367158974259473e-03
-8.605015661332857113e-03
-1.079940420706780937e-02
-1.129291736334273218e-02
-9.897725052762611567e-03
-6.941461927550031039e-03
-3.470735081497371317e-03
-6.054556145410141827e-04
9.479049455312557864e-04
8.280727806865646658e-04
-8.912564530457216987e-04
-3.528049198200170801e-03
-6.178195437801250155e-03
-8.219551267203143580e-03
-9.484504914674013118e-03
-1.053440800810396226e-02
-1.244324027596271053e-02
-1.517308726646595697e-02
-1.651231414743595943e-02
-1.411291857973092506e-02
-8.531579754068839561e-03
-2.997486401839805949e-03
-1.674808636918335633e-04
1.227367077381467594e-05
-4.993363224915570771e-04
1.471280760500213200e-04
2.308966577339735017e-03
4.730108039589057956e-03
5.847987002505720261e-03
5.539595627598606353e-03
5.241171911685630833e-03
6.073784351231750755e-03
7.376268337829136254e-03
7.708088637044290675e-03
7.072005349988691805e-03
7.181870170272219855e-03
9.021515899440729278e-03
1.096752873592601353e-02
1.049700284730993756e-02
7.517507212658257852e-03
4.692356836636383394e-03
4.144086870916028481e-03
5.013222945000598077e-03
5.041139773270285514e-03
3.636960392208821689e-03
2.218157275760309667e-03
1.917062118138363434e-03
2.130167174956628263e-03
1.470277737683503561e-03
-6.437939495632942401e-04
-3.622069383425872112e-03
-6.338776200794126944e-03
-7.638170860544469566e-03
-6.557242647485711333e-03
-2.962138897685088600e-03
1.666470886304120998e-03
4.827416972092792719e-03
5.161642966253389073e-03
3.716767471457012913e-03
2.458197868130416151e-03
1.989633057160458858e-03
1.679074588878369046e-03
1.623530569848753453e-03
2.902627048394788682e-03
5.573002203594070933e-03
7.974788958897392060e-03
8.792594324469946501e-03
8.618860187485446328e-03
8.779381982730030329e-03
9.551152621394750145e-03
1.012843280538909020e-02
9.708624464221406875e-03
8.182804818244848732e-03
6.133801210580425850e-03
4.378199541844755849e-03
3.227428953403786976e-03
2.080911849358376559e-03
-5.403782830581298820e-05
-3.552342193808223809e-03
-7.650019592490476042e-03
-1.083416466627327122e-02
-1.185564292425925030e-02
-1.055413762219930413e-02
-7.672476717694514184e-03
-3.965424653352420288e-03
3.072666644344455552e-05
3.186313946804591405e-03
3.547512884984862364e-03
2.195405065024075633e-05
-5.639817188184632901e-03
-9.552563413484455035e-03
-9.097337457008794134e-03
-5.437142287541038566e-03
-2.284016885712139306e-03
-2.173019812787559037e-03
-4.234169702189949716e-03
-5.714309053924497561e-03
-5.090176348323436142e-03
-3.067094171300414202e-03
-1.078936439969530817e-03
1.519760267547657848e-04
7.484724412494302495e-04
1.314294951806600472e-03
2.528694993386840402e-03
4.594911092706878766e-03
6.981045156992844898e-03
8.725183618245244133e-03
8.886633713994816081e-03
7.110245189121837395e-03
4.389233117305906505e-03
2.943294956925899576e-03
4.411704363912295063e-03
8.076000362970943078e-03
1.150322093236572779e-02
1.302424508941135012e-02
1.306471389733509375e-02
1.306167994466539417e-02
1.366020427488602584e-02
1.404559777704152482e-02
1.271406149480568300e-02
9.028185461455857236e-03
4.124930212967775969e-03
-1.566930068956193418e-04
-3.179249120197655092e-03
-5.419635560273291207e-03
-6.514766121637811762e-03
-4.968138593060034656e-03
-6.296348830951063822e-04
3.687998891249176080e-03
4.389686424424370063e-03
9.381990968467604497e-04
-3.153369792035361392e-03
-3.748736012949406213e-03
-4.797589255239956014e-04
2.990928160998781050e-03
3.299775003822638837e-03
9.566008622926425045e-04
-1.034152265019620386e-03
-1.034957669445596157e-03
-1.167810294694531827e-04
-1.109753594927230524e-04
-1.420510298520413512e-03
-2.701846403816813257e-03
-2.053331320274432228e-03
1.422401496384582097e-03
6.552315628887473743e-03
1.038096115098342299e-02
1.025622436155051304e-02
6.314372460617348470e-03
1.477039536432488143e-03
-1.707583701164020655e-03
-3.749273759507112166e-03
-6.871566821920656494e-03
-1.138455032527772338e-02
-1.462854846038274051e-02
-1.394910236488087867e-02
-1.002529294001546813e-02
-6.322014811911186652e-03
-5.134705887331339307e-03
-5.234761518236655080e-03
-4.170730338643029514e-03
-1.797691824142442791e-03
-1.961930176790289190e-04
-7.579874826996839399e-04
-2.615129838848177443e-03
-3.681296575805933450e-03
-2.536040390594583843e-03
4.382819956465977204e-04
3.528007177531303998e-03
5.615735927139109580e-03
7.349642504727322417e-03
9.648186483281365883e-03
1.153902060576342779e-02
1.098110807643937550e-02
8.052393772719348281e-03
5.687947066208583376e-03
6.151040815823601363e-03
7.972250330023210318e-03
8.007662138490832110e-03
5.854908882938917973e-03
4.274108623731598042e-03
5.196826590620192386e-03
7.229957083019974973e-03
7.779691582428755435e-03
6.121969646428239605e-03
3.488524013359380234e-03
1.356534932835210504e-03
6.373221257347416908e-04
1.570139387708777753e-03
3.313532779516890382e-03
4.138688763712225147e-03
2.954716607836926218e-03
5.553882942630414266e-04
-1.236484159026560300e-03
-1.698038517343332474e-03
-2.058463091710665063e-03
-4.158478735944280517e-03
-8.606838241177415180e-03
-1.431397799029249934e-02
-1.941863156319438219e-02
-2.233026084242538747e-02
-2.217226027975672739e-02
-1.912929570038155239e-02
-1.486028828332947027e-02
-1.184088286131404141e-02
-1.134570226276914243e-02
-1.220679857061091229e-02
-1.214923450509646126e-02
-1.009472937083965433e-02
-6.582718801997945908e-03
-2.504139420797338658e-03
1.413598973791604062e-03
4.141505957962442197e-03
4.969020830661277817e-03
5.042096274864652124e-03
6.815644623728227963e-03
1.098470565372635342e-02
1.504294985459139929e-02
1.607218501971168639e-02
1.421981768072068386e-02
1.214263924758168106e-02
1.139637800026497422e-02
1.079652374067637671e-02
8.664440964290347907e-03
5.494763414974688023e-03
3.376278045406291926e-03
3.261609453100248676e-03
3.956892926849810491e-03
3.920029821867539524e-03
3.135180910876795429e-03
2.747188928146833062e-03
3.421062205977957668e-03
4.680212805109622634e-03
5.605246996606547648e-03
5.510043319900020595e-03
3.989061066771747328e-03
1.181783727894728268e-03
-1.606869180883997369e-03
-2.301942061470668363e-03
1.181928351606810999e-04
4.306731576196985364e-03
7.484069343422820875e-03
7.671457567874139655e-03
4.943838041168805222e-03
9.270440525372871526e-04
-2.419724034668265921e-03
-3.819459586178265090e-03
-3.649134425700975397e-03
-4.429668643754296718e-03
-8.893589941885472749e-03
-1.596770778225312104e-02
-1.986862139507970457e-02
-1.559610953381056729e-02
-5.086178619770009846e-03
4.090294435240469928e-03
6.302232393519622763e-03
2.835400319062513896e-03
-6.621119147099114970e-04
-3.389482915433505994e-04
2.986415870687437156e-03
6.334132047243819230e-03
8.314357636344762992e-03
9.478753041361077242e-03
9.979313509009806599e-03
8.778388812235519978e-03
5.537815390003974179e-03
1.853606726574010422e-03
-2.876494766791465232e-04
-4.518170892995720511e-04
5.124441648641034092e-04
1.674681953260672134e-03
2.092766092823872097e-03
7.995725109024070989e-04
-2.008486981770778688e-03
-4.496835294357357307e-03
-5.087751033335110445e-03
-4.307062105073162367e-03
-3.785075878037395120e-03
-4.008439969081015880e-03
-4.120324191839664675e-03
-3.575837104492020184e-03
-2.798250731951471178e-03
-1.945275742692426004e-03
-6.022833836741525683e-05
3.471665647629517803e-03
6.989403246187261484e-03
7.694294888727774492e-03
5.303361729914642109e-03
3.085473174967761668e-03
4.072378759605988115e-03
7.291803828188360252e-03
9.139786467649291257e-03
7.795550889754586030e-03
4.806189851308333497e-03
2.565814930073455347e-03
1.631332043128635740e-03
8.590692132983628699e-04
-6.563070905956074758e-04
-2.445344075223953272e-03
-3.429523408083742439e-03
-3.396975832921819184e-03
-3.351741914050829912e-03
-4.529719441991482236e-03
-7.401976686828504008e-03
-1.136926358783751922e-02
-1.484385681423321807e-02
-1.594175552953937258e-02
-1.408564381371048800e-02
-1.100218384974628594e-02
-9.249792432756672247e-03
-9.535933471311548726e-03
-1.013097897105960828e-02
-9.010446488124478417e-03
-5.941104679923574911e-03
-2.367517473190180587e-03
2.037694855524212071e-04
1.524571370489752331e-03
2.519522192164895709e-03
3.916435464421405208e-03
5.205214460641987770e-03
5.459700286947529596e-03
4.867563613128364150e-03
4.445566570130959558e-03
4.281301674803848593e-03
3.279537089607374809e-03
1.209298765635577651e-03
7.482860393553361807e-05
2.299747527531738334e-03
7.593552972343606614e-03
1.265812913331801869e-02
1.456370647234666096e-02
1.375246072653616043e-02
1.292085229402566669e-02
1.347317356783529589e-02
1.426904997440267726e-02
1.372131931910115094e-02
1.177860782920389475e-02
9.493867138855955831e-03
7.745726229807443561e-03
6.959455265600562185e-03
7.161852888929881762e-03
7.471962195991812584e-03
6.257278085516505134e-03
2.881862720203072752e-03
-1.117029657016319023e-03
-3.614978327719957970e-03
-4.292086966251657323e-03
-4.512506888505888117e-03
-5.274627921478021106e-03
-6.345698017758330707e-03
-7.297863960270339727e-03
-8.406543406960150303e-03
-9.973233720915155448e-03
-1.105578275791165889e-02
-9.728511262013296926e-03
-5.206700808748118692e-03
7.019618912141008596e-04
5.042511560780299322e-03
6.515351978517436304e-03
6.273227211224900561e-03
6.151026057710222428e-03
6.811892133037460335e-03
7.653810645999406352e-03
7.915024052520761716e-03
7.444192113065368349e-03
6.510986853738490350e-03
5.320534992820239242e-03
3.936491501579692139e-03
2.436916686217644682e-03
9.523645526661368450e-04
-2.966695503080516794e-04
-9.742181438716282635e-04
-1.060995760619037496e-03
-1.536365685287545716e-03
-3.952442833032976388e-03
-8.490871537059841573e-03
-1.277514713503773679e-02
-1.378855536682358635e-02
-1.131527331860660707e-02
-8.485781966363995302e-03
-8.185139969706236446e-03
-9.820484307911143615e-03
-1.077262023428424316e-02
-1.028911231417471879e-02
-1.020743514876867875e-02
-1.172458133975076353e-02
-1.316433922169690102e-02
-1.206459155802999325e-02
-8.570658867828734317e-03
-5.400012785570840190e-03
-4.670293597947496045e-03
-5.791122563196324756e-03
-6.454723659150117185e-03
-5.007767051508013774e-03
-1.813096476615559238e-03
1.321951237767851010e-03
2.849171223004843059e-03
2.503752053952998467e-03
8.246708883766408092e-04
-1.633814495803317382e-03
-4.170734965110780082e-03
-5.523923231703217404e-03
-4.439392981416419824e-03
-9.394838446975023374e-04
3.423209490270542887e-03
7.091657932371067848e-03
1.002092728898376292e-02
1.300466323518237842e-02
1.578153755996723751e-02
1.683234299001175674e-02
1.513786650917404303e-02
1.133979812717323538e-02
6.959758344168602388e-03
2.984322106061914649e-03
-5.033413938458108135e-04
-3.665632565959401571e-03
-6.471383965972358349e-03
-8.813667551968332875e-03
-1.025733308353717933e-02
-9.550750989634438845e-03
-5.513022076465455730e-03
9.073687584427680931e-04
6.343351055060360462e-03
7.748180047364952583e-03
5.177482576339461143e-03
1.433562479866695629e-03
-6.844737875310151227e-04
-4.928265060889934403e-04
7.154199128448714314e-04
1.340424476360230557e-03
1.059749795757525433e-03
1.079020633105480780e-03
2.650524469804230263e-03
5.062165506313777777e-03
5.714218048826899196e-03
2.989630225936327004e-03
-1.486634458574527008e-03
-4.389855074587497435e-03
-4.114339910877569395e-03
-1.932297797515031799e-03
-2.570502126630980558e-04
-4.769698331648578992e-04
-2.110225494056878603e-03
-3.473315103782642025e-03
-3.267290561150388694e-03
-1.706979099781128634e-03
-1.050315128746175629e-04
4.693762305022588545e-04
2.194271096355024028e-05
-5.439183616775444732e-04
-9.013952377889019978e-05
2.139254160810844397e-03
6.002530803003214982e-03
1.019576589889945040e-02
1.286404618792157464e-02
1.297744094253872049e-02
1.089403960458746462e-02
7.306349394101793911e-03
2.333548662889484582e-03
-3.575029886666219580e-03
-8.375800851169594094e-03
-9.355147867592086136e-03
-5.898929473836389201e-03
-8.204598291622986622e-04
1.977603923566740966e-03
1.404602953057664493e-03
1.268598828856539081e-04
1.238559980544714622e-03
4.586015036677121987e-03
7.077812845877990214e-03
6.362280960296102725e-03
3.372606710760775971e-03
9.661206471573524461e-04
7.733548048860724739e-04
2.298315246534987297e-03
4.659570311136175015e-03
7.476774285361137765e-03
9.644418045627848809e-03
9.150604542015439158e-03
5.445566649219628352e-03
9.444943270949309345e-04
-1.067352214386070239e-03
2.895714561488257118e-04
2.957549839645310166e-03
4.478052786640508535e-03
4.497921518567180726e-03
4.554479261996674522e-03
5.746798578616135050e-03
7.353067311828744707e-03
8.018192297856344131e-03
7.582123287768027797e-03
7.029277353259784714e-03
7.069523888532510889e-03
7.469555215672683823e-03
7.439051779144047367e-03
6.082059623431198929e-03
2.975940618655630900e-03
-9.283504574516660522e-04
-3.514913642128955629e-03
-3.580218064123626143e-03
-2.264451596634959978e-03
-1.450353451717006394e-03
-1.407063286512882493e-03
-1.348764280261819304e-03
-1.651868187566540337e-03
-3.569208907280184070e-03
-6.579811733085270085e-03
-7.833530832979964525e-03
-5.348278960983133060e-03
-8.816358726615009748e-04
1.636663754492024420e-03
2.753658056380806247e-04
-3.276724794475539566e-03
-5.988564424867691416e-03
-6.330074609443083443e-03
-4.831043317494017331e-03
-2.686017914275589009e-03
-3.506595294988650198e-04
2.313661120653122752e-03
4.532729362934991187e-03
3.936711062053140260e-03
-1.540759189476699140e-03
-1.079050951798495722e-02
-1.934703740665046426e-02
-2.287395739159243935e-02
-2.086921098707802957e-02
-1.667534863221968588e-02
-1.398162492194387173e-02
-1.361403599021917578e-02
-1.355328046030918748e-02
-1.146285585665613935e-02
-6.886924556904406268e-03
-1.347171797437433016e-03
3.139458878569625824e-03
5.471203875990216133e-03
5.710308321511606278e-03
4.442757727566056317e-03
2.271116371865705003e-03
-1.458131501776370985e-04
-2.019066814285340027e-03
-2.750721540639554201e-03
-2.313650140662489897e-03
-1.089429739183983819e-03
6.714253797298058843e-04
2.800559956911704163e-03
4.504021474541793427e-03
4.541553773339885441e-03
2.854132210168906260e-03
1.463624399038554978e-03
2.798836410862381736e-03
7.080231680520997391e-03
1.186966843588951187e-02
1.439134134390929187e-02
1.406265882250937356e-02
1.249048353805886497e-02
1.118690120571557041e-02
9.798890053145936641e-03
6.604322517563964920e-03
4.437005094053048278e-04
-7.555265661307829922e-03
-1.387840319482473370e-02
-1.500902808702873556e-02
-1.066499998114770267e-02
-4.180211686524435907e-03
8.411410214889305376e-04
3.660446738203072814e-03
5.799431126350737022e-03
8.235379581939089935e-03
1.026225651805299718e-02
1.076152584948092926e-02
9.392091702476283721e-03
6.345779446466208798e-03
1.972749946430643261e-03
-2.800110294235125599e-03
-6.412077975094838608e-03
-7.738267109907775651e-03
-6.881401998452302271e-03
-4.562741951568035671e-03
-1.465855201855869976e-03
1.227209515912200920e-03
1.635934941771681819e-03
-1.274406691681709367e-03
-6.304337305553369200e-03
-1.098729070172028456e-02
-1.365862026708330838e-02
-1.422851793660473950e-02
-1.360945667076823157e-02
-1.288224212686240461e-02
-1.242922782783438714e-02
-1.143023692998045016e-02
-8.677456731689391425e-03
-4.148006822247990270e-03
8.316467390928885747e-04
5.236611895317826344e-03
9.393869576903798174e-03
1.393700429481437193e-02
1.834877089344591830e-02
2.110082507160829235e-02
2.106042849999971434e-02
1.855952006693051271e-02
1.513289663801757959e-02
1.223767271739087392e-02
1.028555187211701964e-02
8.837161956947094110e-03
7.257856680998156333e-03
5.048584738068165670e-03
2.340622084092999159e-03
5.444727129254203594e-04
1.534394398601804897e-03
5.228623387033694975e-03
8.616079822785151221e-03
8.284524848556353363e-03
3.898961025133513593e-03
-1.457308515197929281e-03
-4.431079691796872486e-03
-4.298792120170926226e-03
-2.588040337880371036e-03
-7.523459108611247736e-04
8.482759428060440698e-04
2.164957748212801517e-03
2.944652402501067925e-03
3.254830094554792171e-03
3.669772200488186781e-03
4.438579340384131260e-03
4.944424451106176066e-03
4.479297803739836110e-03
3.250618106163262466e-03
2.066574757190500246e-03
9.879006654605984074e-04
-1.339629294008673477e-03
-6.552683239673169451e-03
-1.429503356974881102e-02
-2.103866875387566671e-02
-2.203545589184170705e-02
-1.547320873380133785e-02
-4.757794712840326783e-03
3.968768444021599992e-03
6.848043429415770142e-03
4.837676865318036798e-03
1.698135035387812394e-03
1.680692372351779741e-04
3.066800666332199221e-04
9.115683400614708149e-04
1.383852558900363142e-03
1.727499161934745739e-03
1.599116454695241347e-03
3.673433404310475110e-04
-1.934617720607783534e-03
-4.222645501733384571e-03
-5.187364005172860268e-03
-4.564429143195275138e-03
-3.307860801903751875e-03
-2.261614852444773522e-03
-1.238210306219835518e-03
5.270768328047904002e-05
1.015680209204125085e-03
1.122648213423554399e-03
1.208656105618860022e-03
2.649182928390019301e-03
5.492331448255565948e-03
8.318227934356220085e-03
9.888732356154389738e-03
1.021209453461106517e-02
9.821083653457990392e-03
8.665109669697071068e-03
6.390778488139885888e-03
3.546915205446911530e-03
1.735342079681666174e-03
2.209101171949382023e-03
4.561659816440031059e-03
6.929694013104227904e-03
7.470784175713663516e-03
5.964846071230591081e-03
4.146488046067272649e-03
3.857359689645848116e-03
4.419786382585739332e-03
2.714070959879031145e-03
-3.032342280039397424e-03
-1.014706812517271635e-02
-1.377253929220892750e-02
-1.229183525567484163e-02
-9.182330824043512946e-03
-8.980785279204742469e-03
-1.214350867928413492e-02
-1.461241266984499194e-02
-1.251571583342226367e-02
-6.610805518964338497e-03
-1.292274959659393775e-03
4.182898284221660094e-04
-3.445746320523055111e-04
-6.882550423257846172e-04
2.422773284986056482e-04
9.996911110857382987e-04
6.050248276465652279e-04
-7.786876258773461185e-05
3.198741434246211860e-05
5.709603922545872321e-04
4.111563070670000604e-04
-7.990258806031750975e-04
-2.394935492181628732e-03
-3.422887799414331064e-03
-3.258015100930195147e-03
-2.090549974209729954e-03
-1.005903604061096331e-03
-1.033496179462096943e-03
-1.955021347856340450e-03
-2.433715142204134242e-03
-1.497075542151741741e-03
2.279812626848241267e-04
1.035804696780736819e-03
2.783250651111489511e-04
-2.006301252678195906e-04
2.282104663502103163e-03
7.784787020407484340e-03
1.289850990240676981e-02
1.413637806096158106e-02
1.143225373395033266e-02
7.503197472897825578e-03
4.600145788312837679e-03
3.060563531865349157e-03
2.505790746185481820e-03
2.886591843983874958e-03
3.974258124911002159e-03
4.890269044471968682e-03
4.767814375687177107e-03
3.322766312937975881e-03
5.581300249452140778e-04
-3.303212502478654854e-03
-7.255850712443967857e-03
-9.580143316586464675e-03
-9.043996569138151864e-03
-5.996788158813478285e-03
-2.152054246387345889e-03
6.948535122156037497e-04
1.747926190967707483e-03
1.167910008442489198e-03
-7.311124670605015103e-04
-3.784980749821719760e-03
-7.202267989809275385e-03
-8.988308807376964304e-03
-7.301010372385122876e-03
-2.766860841719249314e-03
1.694805501703865484e-03
4.305628642569950086e-03
6.706616566907538587e-03
1.137262524495804943e-02
1.731501410311341721e-02
2.017937182229220805e-02
1.708581074302869748e-02
1.021627398649126856e-02
4.781971089090138356e-03
3.839937473277661717e-03
5.706107899607995061e-03
6.318715429158338996e-03
3.553930160843329390e-03
-1.101051606670800428e-03
-4.796348511939703060e-03
-6.317904696534804715e-03
-6.347361190935546169e-03
-5.595471740742105973e-03
-3.924981474035426493e-03
-1.303637333370690279e-03
1.337794267093698726e-03
2.736057034947960830e-03
2.623283152657204277e-03
2.080311087121652393e-03
2.416257515100259969e-03
3.782679325799401075e-03
5.002395183722499646e-03
4.741402821134383175e-03
2.756584610792704032e-03
-9.819217342701448692e-06
-2.422755315150009782e-03
-4.153338035862715050e-03
-5.773332523695668371e-03
-7.894440948662354365e-03
-1.018972920536607811e-02
-1.148217941971218896e-02
-1.105922434931279168e-02
-9.614679704849507860e-03
-8.340317207243290107e-03
-7.196244720005426018e-03
-4.782580093280671199e-03
-1.990316673956080834e-04
5.375127856253670774e-03
9.343959215639911081e-03
1.000365692660833659e-02
8.124586672656168226e-03
6.110100564738001408e-03
5.640089401036321379e-03
6.473635108101059507e-03
7.427019250722982288e-03
7.664093749707502970e-03
6.822870247450893953e-03
4.931644709579098389e-03
2.817865145679326368e-03
1.794170998680511215e-03
2.214010390067429508e-03
2.842937195004400890e-03
2.300805964570724893e-03
7.240259794590079255e-04
-6.546578849775919716e-04
-1.243653388188647622e-03
-1.585776614764565322e-03
-2.061783767690090509e-03
-1.876537402876473238e-03
2.986471880697671999e-07
3.069526038960256401e-03
5.309991468616044423e-03
5.367374869106140631e-03
4.181410021563912970e-03
3.833860415034790955e-03
5.078512129981353242e-03
6.605158429286952203e-03
6.661296022899852731e-03
4.881157242305960570e-03
2.350517665199228917e-03
1.933631940711942263e-04
-1.536333276915920285e-03
-3.542926105723770945e-03
-6.128024712754293231e-03
-8.504660649070915762e-03
-9.320171125273311180e-03
-7.967101318371356058e-03
-5.334514238744396918e-03
-3.012196063250756166e-03
-1.791224304021756019e-03
-1.352546704699408679e-03
-1.450411581644154690e-03
-2.697018223258421110e-03
-5.546285346392645227e-03
-8.827644970744043251e-03
-1.025398546647493872e-02
-8.784616460461372456e-03
-5.934767428089955492e-03
-4.217921261131055491e-03
-4.449269505810161604e-03
-4.907755312873931380e-03
-3.143793543179193226e-03
1.595133384187524990e-03
7.698273125120771651e-03
1.246125375777085154e-02
1.389351098854670757e-02
1.207625529595610786e-02
9.207583212801316586e-03
7.631166787806087717e-03
7.437364742656151981e-03
6.570492115418357856e-03
3.428344197904333382e-03
-1.265522843110554289e-03
-5.259924518229304978e-03
-6.882974138779920752e-03
-6.211287310815809953e-03
-4.534785907023245952e-03
-2.974854322676047207e-03
-1.729074178724207891e-03
-6.021748492180149445e-04
1.354434499520229714e-04
-8.233122450759496405e-05
-1.215217378023310778e-03
-2.550589389036050144e-03
-3.709768733644630730e-03
-5.096732710412565232e-03
-6.940786867165286630e-03
-8.377374296485886121e-03
-8.153587580028230641e-03
-6.176238672262366128e-03
-3.722246446279633709e-03
-1.910368982171883499e-03
-5.105330215494810302e-04
1.422553445475134657e-03
4.267109365952893689e-03
7.556119797624653855e-03
1.044969758028584106e-02
1.202218345822566800e-02
1.154572551223046785e-02
9.167643752442174165e-03
6.264504892365259543e-03
4.670433457774293175e-03
5.405326688660557627e-03
8.091453430855554546e-03
1.116531823799909486e-02
1.250382959574131495e-02
1.067396400489698839e-02
6.340312550329357463e-03
1.984514692971183630e-03
-5.061891572294289002e-04
-1.699253861550528363e-03
-3.545111386587279211e-03
-6.809572146905158024e-03
-1.022955124628350566e-02
-1.209568755110052019e-02
-1.193253462777883397e-02
-1.026452150141910630e-02
-7.310861759611691352e-03
-2.828924944139253779e-03
2.610703672484140231e-03
6.999733417177666714e-03
8.290996966614398028e-03
6.365628921114609845e-03
3.220372662299189441e-03
1.194610490841789118e-03
1.118561715308290802e-03
1.977038259268258744e-03
2.115966389213104829e-03
7.296833170250013705e-04
-1.745237870375118292e-03
-4.397940062294422581e-03
-6.591171589074447910e-03
-7.888250919362701716e-03
-7.636281282894339002e-03
-5.146924573139029062e-03
-5.747535275000188217e-04
4.595703853213283473e-03
8.428925907433808956e-03
1.004133555545258169e-02
9.993790533050890545e-03
9.245193074859842791e-03
8.126566309216216866e-03
6.504693615309120255e-03
4.672107431962288851e-03
3.674932371017818576e-03
4.441535886463190974e-03
6.389987810330904558e-03
7.141110556223431022e-03
4.425884903247716794e-03
-1.225533484435533142e-03
-6.294090171254748678e-03
-7.593644722699972871e-03
-5.666935458856249552e-03
-4.186357527546340739e-03
-5.774873529976803574e-03
-8.878794933807960393e-03
-9.274262829064811725e-03
-4.605339525600405173e-03
3.095994076163341609e-03
9.559662081404969591e-03
1.232994087050070728e-02
1.214976845105749347e-02
1.083344640900834287e-02
8.947000768048598771e-03
6.089716230878705269e-03
2.671848987492755206e-03
2.753931411059616294e-04
8.669032579157291696e-05
1.714794748207579180e-03
3.914213734746631312e-03
5.883281776077186644e-03
7.404059510828097865e-03
8.214205544524105090e-03
7.788377982022559598e-03
5.594735018785963222e-03
1.632937347044103194e-03
-2.714913295097015622e-03
-4.754161509565189327e-03
-2.865073600930858125e-03
9.463861710448172142e-04
2.506481513194825685e-03
1.540840781262700718e-04
-3.593065444088367963e-03
-5.842843785159652047e-03
-6.905170912915633251e-03
-8.543010212218447863e-03
-1.021699064673483974e-02
-9.260055490782872351e-03
-4.483855758279767234e-03
1.956855066956322831e-03
6.549841551082306347e-03
7.493500992110654207e-03
5.705083182939224215e-03
3.572941809238537342e-03
3.116600105260988480e-03
4.774632070400495337e-03
7.280602271065695665e-03
8.799068061316374020e-03
8.565468236763310039e-03
7.350413598697422453e-03
6.222117586541252299e-03
5.297821165449643870e-03
4.024556129243666430e-03
2.108223021864368170e-03
-4.443350261108715152e-04
-3.648062116327849790e-03
-6.984491922091590373e-03
-8.791398922401553323e-03
-7.235390936443518613e-03
-2.181703912392894858e-03
4.355445875787773355e-03
9.707351614246229748e-03
1.213856576793137694e-02
1.115531365138482632e-02
7.181902247249328207e-03
1.447615302924326868e-03
-4.373787437711890679e-03
-9.105314380033629335e-03
-1.253087758374676376e-02
-1.461467407598097262e-02
-1.469071787564867754e-02
-1.208753617584900492e-02
-7.406594765095874527e-03
-2.490965852947185470e-03
1.102164306778025387e-03
3.230689950630331094e-03
4.510907827690599850e-03
4.918427151426036162e-03
3.779201931694248923e-03
1.257326950999327914e-03
-1.025225091129977964e-03
-1.599757609722631153e-03
-8.853566825485837451e-04
-3.980728488675385097e-04
-6.327636283515439188e-04
-9.690522845338519695e-04
-1.393552730457220910e-03
-2.601505247490354215e-03
-4.138640921074318232e-03
-4.243722565593221682e-03
-2.552740181546786676e-03
-1.716159117214300853e-03
-4.753262454982823404e-03
-1.092263091634890909e-02
-1.555479054387800056e-02
-1.469864640696157652e-02
-9.257515203910705176e-03
-3.633651007239151014e-03
-7.939762184518911817e-04
-7.210719255471269989e-06
7.204619895683130743e-04
1.787374907439752240e-03
2.341343765575735689e-03
2.140005085441707040e-03
1.763959690431861696e-03
1.484264854002251190e-03
1.173744602767088415e-03
1.334506884368080347e-03
3.014928631303163010e-03
6.217073938251315227e-03
9.203693814424570088e-03
1.008142957445407398e-02
8.823761962873259701e-03
7.316794815942186808e-03
7.448901578389059697e-03
9.259792472090000101e-03
1.077243472332443247e-02
9.520072120338632371e-03
4.591284927687260507e-03
-2.415802539904105244e-03
-8.492795525312622426e-03
-1.135403122479760468e-02
-1.042130451554110909e-02
-6.236996844872558926e-03
6.352567699178840628e-05
6.569691583147862363e-03
1.091814708083995757e-02
1.166348985803018247e-02
9.430791865014097677e-03
6.505228293353169065e-03
4.857689125040290726e-03
4.060155664002600487e-03
1.464090175917216264e-03
-4.557964488123802949e-03
-1.164087468751259097e-02
-1.500012088484231620e-02
-1.235812153426782238e-02
-6.340391833624242461e-03
-1.577432571890094015e-03
-1.390423237254058853e-04
-2.562895487057781189e-04
9.639972797819439977e-04
4.340069119521132793e-03
8.294737032874938826e-03
1.099507971884123268e-02
1.188355867371779576e-02
1.119162394651158389e-02
9.088609470470158588e-03
5.988764150556445502e-03
3.124174514456635673e-03
1.949740555470581144e-03
2.730060789108265142e-03
3.993527647220185620e-03
3.848294446332839978e-03
2.012909474493794742e-03
2.068360857844901441e-04
3.651671487583306409e-04
2.804731884606802284e-03
6.116563754262284783e-03
8.339290834173113467e-03
8.347244118898063461e-03
6.685936206537480657e-03
4.906965913520352357e-03
3.639400135051789296e-03
1.801021036417308277e-03
-1.595359466420468841e-03
-5.388717846563207022e-03
-7.114965164655623342e-03
-5.853049720964472943e-03
-3.186761452750449738e-03
-1.065921158934695755e-03
3.222091176852947278e-04
1.941011459177415140e-03
3.886311662533736572e-03
4.906377588324275542e-03
3.878100181706947876e-03
1.217592084982151938e-03
-1.184188101357561097e-03
-1.163936027458162444e-03
2.198813602782422917e-03
7.517680671391205327e-03
1.145484734927210493e-02
1.079836609767123937e-02
4.908858461192625207e-03
-3.574812224523518395e-03
-1.062934845097637110e-02
-1.383479518436367579e-02
-1.359753420779515401e-02
-1.142586340145141342e-02
-7.730036194631743907e-03
-2.313810207102620121e-03
3.489693083331748061e-03
6.926039400924243611e-03
6.448186672365587534e-03
3.040127535788847424e-03
-1.304431556429749058e-03
-5.310340179972939528e-03
-8.435970082595389830e-03
-1.025877750539911336e-02
-1.045197749684266368e-02
-8.962730173657590393e-03
-5.849639009262584850e-03
-1.238461893443907995e-03
4.100454800962874055e-03
8.303299060903556600e-03
9.411594788746407286e-03
7.464101272217902629e-03
5.224782983357739718e-03
5.963521561926052837e-03
1.024342091543746502e-02
1.528660623727659887e-02
1.765445713051792473e-02
1.624952182871114426e-02
1.279572525207932701e-02
1.003804088162363328e-02
9.522138771237326910e-03
1.038941680252003855e-02
1.018712086220687971e-02
7.489722784004842690e-03
3.656286902834592588e-03
1.180396299469463339e-03
5.501545397124434295e-04
5.703151653636227012e-05
-1.301527022119941535e-03
-2.390534620388481621e-03
-2.002807722202519253e-03
-9.489364657229619818e-04
-8.337376138908511071e-04
-1.260397489357222402e-03
2.316882239577903232e-04
4.697057097801137122e-03
9.108445548399013436e-03
8.515377244532102222e-03
1.170574717601264615e-03
-9.278372426664854497e-03
-1.728009797153791036e-02
-2.063296102668142271e-02
-2.157331201135114992e-02
-2.294577903287460877e-02
-2.445264456113859994e-02
-2.327076679591021449e-02
-1.772378781991029370e-02
-9.406788365687467415e-03
-1.538960906700390791e-03
4.224698630085473201e-03
8.805551907267384487e-03
1.352309764880330230e-02
1.760784547572578213e-02
1.876948259226787416e-02
1.621102801026572809e-02
1.210625240582452987e-02
9.435544122529034364e-03
8.712396331266771682e-03
7.617637140207101157e-03
4.100056935631938605e-03
-8.270756991987943813e-04
-4.091624074044617962e-03
-4.037247564103765320e-03
-2.013379672030000695e-03
-4.111828829900961418e-04
1.358008476102835500e-04
1.018038765490190739e-03
3.135395328392207547e-03
4.616573666284843822e-03
1.923101291244939818e-03
-6.294665582126468192e-03
-1.703238985551473045e-02
-2.521805159626102494e-02
-2.778329706051660755e-02
-2.534506536545248767e-02
-2.083645024125066123e-02
-1.703135598998843994e-02
-1.481358510984421596e-02
-1.337416994056633834e-02
-1.190051823628781799e-02
-1.047160620785809494e-02
-9.085882540915850292e-03
-6.652681750037058202e-03
-1.722505380193547261e-03
5.770583230805847660e-03
1.367891900629394572e-02
1.889039815342407821e-02
2.000608240864971618e-02
1.873324389788670954e-02
1.782053240174628905e-02
1.762278284736480682e-02
1.588310188530964520e-02
1.125603157832669697e-02
5.725797324948095693e-03
2.545015254481392420e-03
2.434962518308924576e-03
2.819766916785981792e-03
9.750317441687791258e-04
-2.477754260932177321e-03
-3.958086869464726328e-03
-1.270574479611420466e-03
3.361126642865860676e-03
5.842596481106449198e-03
5.014365378490602369e-03
3.164902720140712940e-03
2.178476267430443612e-03
1.338300348000759886e-03
